;Shapelet Tree 

;random seed:1503374689, rand()=808793734, rand()=557129289
;command = /home/grad00/soren885/capstone/ShapeletResearch/Execs/FastShapelet /home/grad00/soren885/capstone/Shapelet_Datasets/UCR_Master/CinC_ECG_torso_TRAIN 4 40 820 1 2 10 manhattan 1 0 10 ./replications/CinC_ECG_torso/CinC_ECG_torso_manhattan_unnormed_CID_REP07_tree.txt ./replications/CinC_ECG_torso/CinC_ECG_torso_manhattan_unnormed_CID_REP07_time.txt 

;Local Class:   0  1  2  3 
;Real  Class:   1  3  4  2 

;Node ID class   obj  pos  len  dist_th 
TreeSize: 18 
NonL  1    --     12   49  719  735.4726 ==>   3  12   0  13  /   2   0  10   0 
NonL  2    --      1  1384   79  15.7592 ==>   0  12   0   5  /   3   0   0   8 
NonL  3    --      1  701  769  3537.4195 ==>   0   0  10   0  /   2   0   0   0 
NonL  4    --      0  472   15   0.5545 ==>   0   2   0   5  /   0  10   0   0 
NonL  5    --      0  316  303  180.4357 ==>   3   0   0   0  /   0   0   0   8 
Leaf  6     4    
Leaf  7     1    
NonL  8    --      0  823   61  107.8457 ==>   0   2   0   0  /   0   0   0   5 
Leaf  9     3    
Leaf 10     1    
Leaf 11     2    
Leaf 16     3    
Leaf 17     2    

;Shapelet id   <data>
Shapelet   1   0.060449  0.059443  0.070271  0.081136  0.079584  0.084446  0.098635  0.096396  0.076060  0.061634  0.059754  0.059916  0.059132  0.059847  0.060276  0.059150  0.059180  0.061287  0.059531  0.048548  0.036203  0.036166  0.048661  0.059537  0.060932  0.059475  0.059762  0.059008  0.059308  0.067948  0.082865  0.095213  0.104750  0.117270  0.132140  0.140100  0.131010  0.110540  0.099720  0.102880  0.099028  0.084361  0.080093  0.082316  0.065787  0.039729  0.033561  0.042212  0.042199  0.036153  0.039068  0.050828  0.061595  0.062430  0.056063  0.058179  0.072592  0.079493  0.067643  0.055073  0.057643  0.069062  0.080997  0.093349  0.102870  0.102170  0.090738  0.079603  0.085348  0.108260  0.121590  0.110170  0.099772  0.110680  0.120490  0.108170  0.089661  0.080469  0.071375  0.056550  0.044025  0.034716  0.021944  0.013138  0.021731  0.036755  0.038612  0.037395  0.054868  0.081262  0.095189  0.103210  0.116160  0.123680  0.119870  0.117170  0.121290  0.121720  0.116600  0.119160  0.132050  0.140990  0.140490  0.140160  0.140410  0.131940  0.117390  0.105350  0.094026  0.081690  0.076937  0.079931  0.072483  0.049529  0.037437  0.055302  0.080309  0.084460  0.077718  0.078299  0.081286  0.079861  0.078741  0.080177  0.080694  0.075972  0.061574  0.049633  0.065770  0.104570  0.127680  0.121930  0.114490  0.121070  0.124580  0.113510  0.101160  0.099417  0.099561  0.089603  0.073802  0.061959  0.056990  0.059722  0.070828  0.082530  0.082664  0.074968  0.078696  0.100980  0.123880  0.125840  0.110330  0.099874  0.106610  0.122540  0.135550  0.142150  0.141180  0.131880  0.118470  0.105610  0.097143  0.097995  0.103970  0.099432  0.084308  0.081017  0.094853  0.104170  0.100060  0.096941  0.101050  0.101670  0.096895  0.098871  0.110810  0.121140  0.121490  0.118470  0.119390  0.121020  0.119520  0.118540  0.121170  0.121110  0.112490  0.098898  0.085964  0.077119  0.077222  0.088069  0.099786  0.101890  0.098945  0.099020  0.100580  0.099915  0.099057  0.100050  0.100230  0.099140  0.099581  0.100740  0.099356  0.097805  0.103970  0.117230  0.124890  0.118710  0.105970  0.095947  0.084180  0.067712  0.059759  0.068964  0.084961  0.096782  0.103340  0.100200  0.086559  0.079638  0.091565  0.110070  0.119450  0.120370  0.119670  0.119460  0.120180  0.120030  0.118900  0.120130  0.121100  0.118380  0.118710  0.123100  0.119280  0.113140  0.128610  0.155420  0.158030  0.139970  0.134020  0.142500  0.143130  0.132550  0.120680  0.109130  0.096771  0.084392  0.075978  0.078375  0.090745  0.100760  0.101110  0.098931  0.099516  0.100040  0.099760  0.099741  0.099428  0.099062  0.104840  0.120360  0.135550  0.140170  0.139380  0.141310  0.140070  0.135900  0.143280  0.157250  0.159380  0.159110  0.171890  0.179800  0.167370  0.155640  0.158790  0.162130  0.159550  0.159560  0.158030  0.144470  0.127270  0.119550  0.111380  0.091350  0.077978  0.093373  0.119730  0.125620  0.117360  0.117350  0.122680  0.120270  0.116440  0.121440  0.123700  0.111700  0.100080  0.106380  0.122310  0.134080  0.145860  0.158190  0.161810  0.159750  0.159790  0.159350  0.159060  0.162570  0.159650  0.146060  0.138980  0.140690  0.133600  0.120240  0.117040  0.120520  0.120190  0.119890  0.120040  0.117300  0.121640  0.134740  0.141830  0.140140  0.139920  0.139530  0.137240  0.144610  0.157810  0.161290  0.159920  0.161200  0.157770  0.156350  0.174440  0.199850  0.213350  0.222830  0.225150  0.204690  0.180890  0.178570  0.178330  0.164020  0.161510  0.177720  0.184770  0.178900  0.177940  0.180890  0.179920  0.184230  0.202140  0.226530  0.247540  0.258820  0.260350  0.260120  0.261250  0.257740  0.245270  0.230740  0.220390  0.210450  0.194770  0.170530  0.147490  0.139720  0.142230  0.138310  0.134400  0.150940  0.176550  0.188970  0.202820  0.237210  0.275290  0.296820  0.309290  0.320720  0.323230  0.318460  0.319110  0.319670  0.300440  0.263630  0.232130  0.210260  0.179980  0.142560  0.115590  0.094258  0.060127  0.016044 -0.016796 -0.038068 -0.065850 -0.101770 -0.136110 -0.171420 -0.217190 -0.265140 -0.309620 -0.365020 -0.426180 -0.466880 -0.481430 -0.490440 -0.507520 -0.530370 -0.565610 -0.618820 -0.679510 -0.735340 -0.782390 -0.825770 -0.859190 -0.869580 -0.857890 -0.833140 -0.810840 -0.801370 -0.807350 -0.824040 -0.845110 -0.876190 -0.913010 -0.942750 -0.963050 -0.982630 -1.015600 -1.063800 -1.122100 -1.182000 -1.226000 -1.244200 -1.232400 -1.201400 -1.165200 -1.129100 -1.092900 -1.046400 -0.991720 -0.946850 -0.919230 -0.897770 -0.871770 -0.856200 -0.859710 -0.865430 -0.860690 -0.847520 -0.837260 -0.826140 -0.805260 -0.781160 -0.764460 -0.759980 -0.749560 -0.719570 -0.682960 -0.660920 -0.663460 -0.675970 -0.687170 -0.699880 -0.713440 -0.722240 -0.722330 -0.718800 -0.705840 -0.674030 -0.636930 -0.610280 -0.595140 -0.583930 -0.572390 -0.560630 -0.555160 -0.566970 -0.580660 -0.575030 -0.561480 -0.552170 -0.532980 -0.495800 -0.462130 -0.442560 -0.421160 -0.394730 -0.370910 -0.348320 -0.324280 -0.306150 -0.300200 -0.292050 -0.266030 -0.228900 -0.192220 -0.157410 -0.129510 -0.115610 -0.092651 -0.042385  0.000273  0.012189  0.028243  0.066939  0.094473  0.099647  0.109050  0.122760  0.123170  0.114500  0.101800  0.079945  0.055635  0.042294  0.038439  0.038891  0.046922  0.061700  0.074699  0.083261  0.095200  0.116640  0.141140  0.156920  0.158640  0.145800  0.127660  0.119860  0.121240  0.118040  0.115640  0.132800  0.158420  0.165530  0.158190  0.157380  0.162040  0.160370  0.161980  0.185160  0.222700  0.250620  0.259620  0.259980  0.260070  0.259600  0.260540  0.260940  0.254040  0.239700  0.225530  0.218250  0.218030  0.225590  0.239360  0.252500  0.262420  0.273600  0.288890  0.299610  0.299810  0.301000  0.312180  0.327390  0.338430  0.348270  0.362050  0.375040  0.382320  0.381600  0.373100  0.359400  0.345360  0.338540  0.339160  0.341210  0.340270  0.338020  0.342150  0.354090  0.369040  0.379770  0.381730  0.379600  0.379060  0.381110  0.380650  0.377540  0.381510  0.393660  0.403350  0.401540  0.396680  0.400930  0.404480  0.394410  0.381180  0.384620  0.400680  0.412910  0.424180  0.436910  0.442480  0.440530  0.439190  0.440420  0.440060  0.440760  0.440800  0.432080  0.417200  0.403960  0.397760  0.399070  0.408120  0.421740  0.425250  0.413620  0.401350  0.399950  0.400120  0.396510  0.404550  0.418060  0.419020  0.420240  0.439710  0.467960  0.490560  0.516350  0.539400  0.542690  0.540820  0.552180  0.568730  0.579110  0.594450  0.627080  0.674170  0.724610  0.771590  0.816920  0.865700  0.909580  0.923350  0.909350  0.883150  0.839960  0.755360  0.606460  0.416430  0.206720 -0.009432 -0.228770 -0.461570 -0.695590 -0.941970 -1.208500 -1.495000 -1.803600 -2.136300 -2.521100 -2.928600 -3.319900 -3.691400 -4.038800 -4.360200 -4.639100 -4.899200 -5.164100 -5.438400 -5.741700 -6.051500 -6.339200 -6.588900 -6.791400 -6.953200 -7.060100 -7.124100 -7.152300 -7.120900 -7.021100 -6.845800 -6.628900 -6.404000 -6.193500 -6.024400 -5.861300 -5.679400 -5.502600 -5.372300 -5.304400 -5.275700 -5.308300 -5.401200 -5.475500 -5.468800 -5.364000 -5.215600 -5.053000 -4.856900 -4.603500 -4.257500 -3.825200 -3.330000 -2.798600 -2.251500 -1.668700 -1.066200 -0.510170 -0.092059 
Shapelet   2  -0.671880 -0.709380 -0.701730 -0.683170 -0.646570 -0.600970 -0.606120 -0.654700 -0.698300 -0.712340 -0.680570 -0.634900 -0.611540 -0.584170 -0.565040 -0.600970 -0.651300 -0.666400 -0.681980 -0.711780 -0.702040 -0.651920 -0.625680 -0.632690 -0.634430 -0.631180 -0.632980 -0.631750 -0.634040 -0.633250 -0.611360 -0.591900 -0.599080 -0.605310 -0.586580 -0.565650 -0.563700 -0.560850 -0.531910 -0.484110 -0.451550 -0.464500 -0.495010 -0.487950 -0.464190 -0.462590 -0.461510 -0.464600 -0.488860 -0.498610 -0.498290 -0.520470 -0.535800 -0.531570 -0.516950 -0.461770 -0.395320 -0.402080 -0.465420 -0.498180 -0.478940 -0.446920 -0.430160 -0.429490 -0.425250 -0.394500 -0.362580 -0.374500 -0.397340 -0.394850 -0.406620 -0.431620 -0.433490 -0.422810 -0.393760 -0.362230 -0.372130 -0.359190 -0.301110 
Shapelet   3   0.097745  0.119770  0.136320  0.147480  0.158880  0.171630  0.178040  0.180160  0.190100  0.202290  0.206370  0.211280  0.220590  0.225090  0.227050  0.232750  0.240580  0.249150  0.257000  0.264660  0.274330  0.280300  0.279770  0.281120  0.287510  0.295610  0.304430  0.311060  0.314780  0.321320  0.330230  0.333720  0.332470  0.335350  0.344630  0.356420  0.367900  0.375440  0.381530  0.393700  0.405680  0.409520  0.414570  0.423970  0.428520  0.430490  0.436100  0.440470  0.442330  0.448610  0.457300  0.460180  0.459310  0.459430  0.457120  0.452530  0.452480  0.454860  0.451980  0.447620  0.447860  0.445710  0.436970  0.430530  0.428430  0.424160  0.421230  0.425300  0.429470  0.428850  0.430420  0.435460  0.436280  0.434100  0.435690  0.439450  0.442690  0.447920  0.455780  0.462260  0.465790  0.469480  0.472520  0.471020  0.469770  0.476180  0.484330  0.484300  0.481250  0.484460  0.488870  0.488810  0.489660  0.489980  0.484970  0.483680  0.488670  0.489950  0.488820  0.489380  0.488870  0.489520  0.489700  0.484820  0.483470  0.489360  0.490860  0.487230  0.489650  0.494910  0.492760  0.489520  0.493060  0.496040  0.495350  0.495100  0.494500  0.495830  0.500270  0.499780  0.494400  0.494090  0.496870  0.494250  0.493800  0.500430  0.499700  0.494830  0.501850  0.507290  0.502030  0.500940  0.499240  0.490180  0.490040  0.497640  0.495970  0.489660  0.489570  0.489640  0.484810  0.482440  0.483600  0.483090  0.483230  0.483460  0.482490  0.484250  0.482940  0.477560  0.478180  0.476360  0.466810  0.466370  0.471960  0.471300  0.473320  0.477880  0.477420  0.477540  0.476140  0.471580  0.473630  0.477910  0.477400  0.479550  0.484920  0.488990  0.493190  0.495330  0.495410  0.498530  0.502030  0.501580  0.503200  0.511660  0.519660  0.523340  0.526300  0.525180  0.522990  0.530330  0.537640  0.536520  0.540920  0.550420  0.553920  0.559320  0.568780  0.572590  0.574780  0.580470  0.584460  0.587000  0.593060  0.601490  0.609390  0.617620  0.626050  0.631460  0.632720  0.632970  0.638230  0.649550  0.657070  0.659040  0.667840  0.681190  0.686060  0.687370  0.693490  0.701050  0.708780  0.717790  0.725560  0.732800  0.742160  0.750420  0.754850  0.759890  0.767790  0.775910  0.784530  0.792650  0.799240  0.809660  0.822250  0.830430  0.839630  0.852480  0.861710  0.868690  0.877450  0.885380  0.893140  0.901950  0.909580  0.917470  0.926450  0.931200  0.932340  0.938900  0.950630  0.960050  0.969230  0.981290  0.989040  0.993110  1.003800  1.017500  1.022600  1.024900  1.035600  1.048000  1.055500  1.063800  1.071200  1.074600  1.081100  1.090000  1.097800  1.109500  1.120000  1.123400  1.131100  1.147400  1.159400  1.162900  1.167900  1.177500  1.185600  1.192100  1.201900  1.213600  1.223300  1.232500  1.243400  1.254500  1.262600  1.269600  1.276700  1.280300  1.286100  1.300300  1.310600  1.313000  1.322500  1.335400  1.338700  1.342800  1.353800  1.357700  1.356900  1.367100  1.380000  1.383600  1.389800  1.398900  1.398800  1.400700  1.410700  1.415500  1.418100  1.423600  1.426100  1.432000  1.441800  1.445500  1.448200  1.454200  1.457200  1.460600  1.466200  1.469300  1.472700  1.478200  1.481800  1.483200  1.483400  1.482700  1.482900  1.483200  1.482600  1.485100  1.490000  1.490000  1.485200  1.482500  1.483000  1.483500  1.481800  1.478000  1.475700  1.477400  1.477900  1.473700  1.468000  1.460500  1.450600  1.444300  1.442100  1.437600  1.431000  1.423900  1.414700  1.406100  1.399500  1.391100  1.379800  1.368600  1.356100  1.342100  1.332600  1.325000  1.310500  1.294800  1.283000  1.268100  1.251600  1.235800  1.217800  1.204200  1.192800  1.175600  1.161600  1.150500  1.130500  1.110900  1.096200  1.075700  1.056000  1.041500  1.024400  1.008700  0.993070  0.971330  0.953670  0.938230  0.913600  0.889250  0.871520  0.854310  0.840430  0.829200  0.812910  0.795080  0.780320  0.764120  0.746380  0.731990  0.719970  0.707550  0.695730  0.683760  0.670800  0.659470  0.647650  0.631500  0.615810  0.604610  0.593130  0.579380  0.568160  0.560000  0.550040  0.538060  0.525740  0.512490  0.501630  0.493640  0.482570  0.471230  0.466360  0.461920  0.452680  0.444050  0.435510  0.421480  0.407950  0.402600  0.398360  0.389740  0.383830  0.380440  0.372200  0.362450  0.355800  0.347730  0.337970  0.332130  0.328460  0.323400  0.321220  0.321820  0.318910  0.312810  0.304630  0.295070  0.289750  0.286100  0.280530  0.280020  0.279910  0.271570  0.264820  0.261660  0.253440  0.246090  0.243670  0.239650  0.234710  0.231520  0.230940  0.233300  0.230630  0.221700  0.218420  0.219840  0.215620  0.209280  0.207770  0.207960  0.207390  0.208090  0.208210  0.204820  0.200090  0.196310  0.194760  0.196760  0.196370  0.188320  0.181900  0.183920  0.185640  0.180230  0.172010  0.169910  0.173980  0.171670  0.165430  0.169180  0.171640  0.162690  0.158780  0.159670  0.151290  0.144610  0.149270  0.153720  0.153560  0.154220  0.154430  0.151220  0.146720  0.142790  0.138690  0.134680  0.130750  0.126140  0.123290  0.123920  0.124750  0.122690  0.118460  0.113840  0.111050  0.112110  0.113220  0.109590  0.106160  0.106370  0.104100  0.099997  0.099781  0.098904  0.093475  0.088790  0.087529  0.088423  0.092357  0.096269  0.092711  0.084068  0.078750  0.075059  0.070699  0.069979  0.069512  0.065009  0.062802  0.064807  0.064594  0.060826  0.056523  0.052630  0.048641  0.044181  0.040418  0.039464  0.040744  0.040326  0.036257  0.032927  0.034361  0.035496  0.031288  0.028299  0.032108  0.035601  0.033958  0.033352  0.035619  0.033334  0.024908  0.018020  0.016121  0.016156  0.016328  0.016133  0.016103  0.016606  0.015874  0.015921  0.017509  0.014520  0.010311  0.013297  0.016917  0.016276  0.019015  0.023693  0.022479  0.020547  0.024606  0.028296  0.027770  0.029744  0.034433  0.038090  0.043082  0.046303  0.045613  0.048501  0.052435  0.051957  0.054119  0.058849  0.062347  0.069666  0.077362  0.081026  0.085664  0.088197  0.087680  0.091435  0.094245  0.093675  0.099741  0.108500  0.111800  0.115180  0.119050  0.118320  0.116960  0.119420  0.123930  0.128010  0.131710  0.136140  0.137560  0.132980  0.130160  0.134010  0.136900  0.135990  0.135760  0.135800  0.136300  0.140250  0.143640  0.141230  0.136720  0.135470  0.136060  0.135850  0.137790  0.143620  0.147740  0.147750  0.148260  0.148400  0.144490  0.141240  0.141900  0.142260  0.141730  0.142050  0.142000  0.141880  0.142110  0.141820  0.142130  0.142120  0.138490  0.133040  0.130050  0.129760  0.129980  0.130110  0.130230  0.128360  0.123250  0.118600  0.117950  0.117740  0.113510  0.109990  0.113260  0.117820  0.115910  0.110630  0.106790  0.102810  0.099169  0.099713  0.101380  0.098384  0.094366  0.094083  0.093130  0.088565  0.084003  0.080283  0.076313  0.075341  0.075931  0.070102  0.063664  0.066151  0.063642  0.050092  0.044876  0.045990  0.037771  0.031426  0.034871  0.035444  0.031069  0.027611  0.023612  0.018903  0.015464  0.011473  0.006431  0.003918  0.004216  0.004177  0.004435  0.004557  0.001279 -0.003399 -0.007233 -0.011400 -0.015315 -0.019371 -0.021475 -0.016998 -0.013594 -0.020644 -0.029416 -0.031628 -0.034679 -0.041306 -0.043559 -0.042773 -0.046335 -0.049728 -0.049290 -0.051924 -0.055963 -0.055731 -0.057145 -0.062792 -0.066998 -0.068190 -0.067247 -0.067022 -0.070808 -0.074069 -0.073582 -0.075567 -0.081698 -0.085411 -0.085210 -0.086558 -0.091089 -0.092947 -0.090314 -0.091249 -0.096467 -0.097059 -0.097444 -0.105470 -0.111530 -0.109350 -0.105130 -0.102130 -0.103840 -0.108820 -0.108800 -0.110130 -0.118860 -0.123060 -0.121210 -0.121320 -0.121250 -0.121790 -0.122320 -0.117490 -0.116000 -0.120800 -0.121380 -0.122470 -0.127170 -0.124950 -0.120540 -0.121300 -0.121330 
Shapelet   4  -0.232440 -0.261040 -0.284700 -0.304930 -0.328860 -0.350210 -0.374270 -0.396570 -0.414370 -0.450250 -0.497700 -0.524270 -0.538330 -0.565480 -0.592500 
Shapelet   5   0.225500  0.190130  0.225500  0.260870  0.260870  0.225500  0.154760  0.119390  0.137070  0.154760  0.172440  0.172440  0.190130  0.190130  0.190130  0.137070  0.066330  0.119390  0.137070  0.084016  0.066330  0.048644  0.013272  0.013272  0.013272  0.030958  0.066330  0.048644 -0.004413 -0.004413  0.101700  0.243190  0.278560  0.260870  0.278560  0.260870  0.225500  0.207820  0.225500  0.243190  0.243190  0.225500  0.172440  0.190130  0.207820  0.190130  0.137070  0.084016  0.030958  0.013272 -0.022099 -0.022099  0.030958  0.030958  0.013272  0.048644  0.119390  0.190130  0.207820  0.190130  0.190130  0.137070  0.119390  0.101700  0.048644  0.048644  0.048644  0.048644  0.030958  0.030958  0.030958  0.048644  0.119390  0.154760  0.190130  0.190130  0.207820  0.190130  0.190130  0.172440  0.137070  0.084016  0.084016  0.101700  0.119390  0.119390  0.154760  0.190130  0.207820  0.190130  0.172440  0.225500  0.278560  0.243190  0.207820  0.172440  0.137070  0.137070  0.066330 -0.004413 -0.057471 -0.110530 -0.181270 -0.216640 -0.287390 -0.340440 -0.411190 -0.411190 -0.375810 -0.358130 -0.393500 -0.375810 -0.340440 -0.358130 -0.358130 -0.287390 -0.216640 -0.216640 -0.252010 -0.216640 -0.163590 -0.163590 -0.163590 -0.128210 -0.075157 -0.057471 -0.075157 -0.092842 -0.075157 -0.004413  0.030958  0.119390  0.154760  0.119390  0.137070  0.154760  0.207820  0.207820  0.172440  0.137070  0.066330 -0.022099 -0.110530 -0.163590 -0.198960 -0.252010 -0.340440 -0.375810 -0.393500 -0.411190 -0.375810 -0.340440 -0.358130 -0.375810 -0.375810 -0.411190 -0.411190 -0.375810 -0.305070 -0.198960 -0.110530 -0.057471 -0.092842 -0.110530 -0.092842 -0.022099  0.030958  0.084016  0.066330  0.013272 -0.004413 -0.110530 -0.198960 -0.234330 -0.216640 -0.216640 -0.216640 -0.234330 -0.181270 -0.128210 -0.075157 -0.075157 -0.039785  0.013272 -0.004413 -0.004413  0.013272  0.013272  0.013272  0.048644  0.048644  0.013272 -0.022099 -0.057471 -0.057471 -0.057471 -0.039785  0.013272  0.013272  0.066330  0.084016  0.048644  0.066330  0.101700  0.084016  0.066330  0.013272  0.013272  0.030958  0.066330  0.137070  0.225500  0.278560  0.225500  0.172440  0.137070  0.172440  0.243190  0.260870  0.225500  0.225500  0.260870  0.243190  0.207820  0.207820  0.225500  0.225500  0.190130  0.137070  0.048644  0.084016  0.119390  0.137070  0.172440  0.225500  0.225500  0.207820  0.243190  0.260870  0.278560  0.243190  0.190130  0.154760  0.137070  0.190130  0.243190  0.260870  0.225500  0.172440  0.154760  0.190130  0.190130  0.190130  0.190130  0.207820  0.172440  0.154760  0.137070  0.137070  0.172440  0.207820  0.172440  0.084016 -0.004413 -0.092842 -0.269700 -0.534990 -0.747220 -0.994820 -1.242400 -1.419300 -1.525400 -1.666900 -1.896800 -2.126700 -2.392000 -2.639600 -2.851800 -2.975600 -3.028700 -3.081700 -3.064100 -2.957900 -2.745700 -2.586500 -2.515800 -2.515800 -2.604200 -2.781100 -2.869500 -2.851800 -2.869500 -2.975600 -3.240900 -3.576900 -3.983700 -4.443500 -4.797300 -4.974100 -4.726500 -3.895300 -2.816500 -1.719900 
Shapelet   8   4.341800  4.609400  4.700700  4.623900  4.542300  4.532700  4.575800  4.662500  4.744900  4.745700  4.657600  4.528200  4.392900  4.250000  4.075100  3.891100  3.757400  3.655400  3.519900  3.355200  3.210600  3.121100  3.097100  3.117400  3.164500  3.213400  3.195700  3.099700  3.012300  2.960200  2.892000  2.813200  2.759200  2.715800  2.666400  2.628700  2.608900  2.578000  2.514900  2.446900  2.400200  2.349700  2.280400  2.224300  2.188200  2.142800  2.090300  2.056200  2.036600  1.991200  1.892600  1.778500  1.699000  1.639800  1.571800  1.491600  1.382300  1.244100  1.118500  1.021200  0.932370 


; cmd = /home/grad00/soren885/capstone/ShapeletResearch/Execs/FastShapelet /home/grad00/soren885/capstone/Shapelet_Datasets/UCR_Master/CinC_ECG_torso_TRAIN 4 40 820 1 2 10 manhattan 1 0 10 ./replications/CinC_ECG_torso/CinC_ECG_torso_manhattan_unnormed_CID_REP07_tree.txt ./replications/CinC_ECG_torso/CinC_ECG_torso_manhattan_unnormed_CID_REP07_time.txt
; time =>  1125.047  17.257  77.045   5.988 1017.801 
; command = /home/grad00/soren885/capstone/ShapeletResearch/Execs/Classify /home/grad00/soren885/capstone/Shapelet_Datasets/UCR_Master/CinC_ECG_torso_TEST 4 1380 manhattan 1 0 ./replications/CinC_ECG_torso/CinC_ECG_torso_manhattan_unnormed_CID_REP07_tree.txt ./replications/CinC_ECG_torso/CinC_ECG_torso_manhattan_unnormed_CID_REP07_acc.txt
; accuracy= 66.594   Correct:919 , Wrong: 461


;   == Confusion Matrix ==
;   real |   3    2    4    1 
;   -----+------------------------
;   p  3 | 256  152    9   80 
;   p  2 |  69  166   21   49 
;   p  4 |  17   20  313   37 
;   p  1 |   1    4    2  184 

