;Shapelet Tree 

;random seed:1503520445, rand()=1144408711, rand()=129595061
;command = /home/grad00/soren885/capstone/ShapeletResearch/Execs/FastShapelet /home/grad00/soren885/capstone/Shapelet_Datasets/UCR_Master/CinC_ECG_torso_TRAIN 4 40 820 1 2 10 correlation 0 0 10 ./replications/CinC_ECG_torso/CinC_ECG_torso_correlation_unnormed_NOCID_REP05_tree.txt ./replications/CinC_ECG_torso/CinC_ECG_torso_correlation_unnormed_NOCID_REP05_time.txt 

;Local Class:   0  1  2  3 
;Real  Class:   1  3  4  2 

;Node ID class   obj  pos  len  dist_th 
TreeSize: 8 
NonL  1    --     25   37  739   0.6285 ==>   0  12   0  13  /   5   0  10   0 
NonL  2    --      6   34  771   0.6712 ==>   0  11   0   0  /   0   1   0  13 
NonL  3    --      1  469   59   0.0355 ==>   0   0  10   0  /   5   0   0   0 
Leaf  4     3    
Leaf  5     2    
Leaf  6     4    
Leaf  7     1    

;Shapelet id   <data>
Shapelet   1   0.729260  0.707170  0.615700  0.580980  0.592280  0.610810  0.635030  0.640130  0.633920  0.660210  0.674710  0.614440  0.546630  0.545020  0.554080  0.529150  0.531320  0.590270  0.639930  0.631450  0.592730  0.565370  0.553710  0.548870  0.561010  0.597580  0.635140  0.642100  0.613160  0.573030  0.553580  0.557950  0.555340  0.543550  0.560810  0.600830  0.614830  0.611200  0.628110  0.641450  0.622760  0.611940  0.634930  0.652900  0.639940  0.608110  0.566930  0.530930  0.520860  0.524780  0.522090  0.530270  0.566490  0.605200  0.613290  0.586040  0.544430  0.522510  0.534830  0.552940  0.553110  0.555740  0.574470  0.586770  0.583950  0.583480  0.582510  0.566280  0.548380  0.550770  0.560260  0.553550  0.545560  0.562350  0.582820  0.573550  0.554360  0.553560  0.551640  0.533490  0.511640  0.472360  0.409760  0.376890  0.395830  0.413380  0.408320  0.416510  0.440150  0.456410  0.478530  0.516110  0.543690  0.554690  0.571350  0.586290  0.566910  0.526640  0.524720  0.576070  0.622090  0.620370  0.603320  0.611130  0.623670  0.604970  0.567600  0.542600  0.527270  0.507530  0.494600  0.496080  0.490620  0.470270  0.460150  0.466980  0.457630  0.420650  0.402770  0.440760  0.496920  0.511070  0.484990  0.465910  0.475920  0.495160  0.490120  0.456020  0.433990  0.450650  0.466780  0.449020  0.438600  0.473300  0.511100  0.501640  0.463020  0.434320  0.417300  0.401620  0.402870  0.433610  0.467950  0.474200  0.461650  0.461860  0.479960  0.495540  0.498530  0.493200  0.477080  0.444650  0.409820  0.397770  0.413260  0.433880  0.433350  0.410990  0.404670  0.447460  0.508560  0.525130  0.500090  0.496010  0.528260  0.541550  0.506230  0.469310  0.474400  0.496030  0.499130  0.494990  0.496610  0.488090  0.467180  0.448640  0.433520  0.430720  0.451530  0.466750  0.450270  0.437080  0.455130  0.473040  0.468590  0.454010  0.434490  0.425760  0.454720  0.492770  0.480680  0.434600  0.422150  0.448750  0.466360  0.462680  0.466300  0.486090  0.495780  0.477710  0.449760  0.437340  0.438290  0.436280  0.434860  0.441120  0.439130  0.419500  0.407910  0.423600  0.448550  0.464280  0.470360  0.465530  0.460910  0.472590  0.473930  0.431100  0.377590  0.364730  0.390610  0.442460  0.512330  0.553610  0.539760  0.524130  0.543780  0.560900  0.554900  0.551690  0.554080  0.552010  0.560930  0.580610  0.587290  0.582750  0.582860  0.582450  0.581590  0.594490  0.613330  0.617890  0.607160  0.589040  0.574630  0.583090  0.607730  0.607980  0.571410  0.528980  0.497630  0.473280  0.467500  0.485920  0.502040  0.497170  0.489350  0.498180  0.516940  0.528780  0.526820  0.513300  0.493510  0.474170  0.463260  0.464190  0.475290  0.496330  0.528210  0.567930  0.604340  0.615850  0.585250  0.527720  0.490140  0.505850  0.552940  0.582080  0.583940  0.583180  0.571600  0.529880  0.496490  0.509600  0.524320  0.492900  0.449990  0.437100  0.437560  0.437430  0.452110  0.472680  0.471210  0.457500  0.466220  0.491740  0.490360  0.452390  0.423280  0.435090  0.461300  0.464580  0.447210  0.423390  0.385640  0.338460  0.321100  0.353050  0.400480  0.432370  0.452310  0.467790  0.484040  0.502540  0.501770  0.475130  0.466720  0.490450  0.489500  0.449660  0.427250  0.436650  0.441710  0.434940  0.420200  0.385400  0.351250  0.355530  0.384330  0.402390  0.415450  0.434730  0.434610  0.403410  0.389870  0.432870  0.488010  0.501180  0.495570  0.500040  0.487650  0.465540  0.489670  0.553540  0.600030  0.613970  0.599170  0.548770  0.497860  0.489300  0.495500  0.478290  0.454570  0.439440  0.421160  0.406710  0.407710  0.403970  0.383430  0.369150  0.381020  0.414460  0.450910  0.467530  0.454710  0.436940  0.446190  0.477670  0.497230  0.481200  0.439130  0.398100  0.375060  0.374950  0.384240  0.380470  0.362340  0.347350  0.333150  0.305780  0.290600  0.300610  0.286070  0.219530  0.142320  0.076040 -0.007233 -0.092758 -0.125980 -0.108070 -0.089167 -0.095089 -0.117620 -0.150510 -0.185200 -0.188770 -0.144470 -0.091622 -0.067835 -0.056103 -0.038289 -0.019474  0.019480  0.083608  0.117640  0.111340  0.132830  0.191160  0.241000  0.298210  0.387630  0.463050  0.509460  0.575240  0.642830  0.654480  0.639280  0.673340  0.758620  0.842990  0.902370  0.944120  0.979590  1.003400  0.995380  0.952920  0.891000  0.808150  0.704790  0.621580  0.590880  0.581380  0.561190  0.554390  0.575470  0.606670  0.644030  0.682950  0.707010  0.738650  0.815580  0.903870  0.946910  0.972100  1.025100  1.083900  1.108500  1.108000  1.110000  1.112500  1.097600  1.057900  1.005000  0.955410  0.917320  0.897420  0.900430  0.926830  0.966340  0.989870  0.991600  1.009500  1.050400  1.049600  0.991570  0.957770  0.964260  0.944420  0.905520  0.907760  0.944080  0.991470  1.072400  1.160300  1.193500  1.198800  1.232600  1.270400  1.262100  1.206600  1.127500  1.052500  1.000700  0.949580  0.883760  0.845210  0.847840  0.836810  0.796240  0.790710  0.845410  0.896840  0.900960  0.881860  0.862800  0.821770  0.748610  0.690520  0.685780  0.724580  0.779930  0.818330  0.813650  0.801880  0.843810  0.900490  0.881950  0.810740  0.778800  0.797950  0.815970  0.810710  0.786870  0.742070  0.674820  0.586730  0.501480  0.466270  0.492880  0.533370  0.549470  0.565070  0.606600  0.651530  0.673260  0.686740  0.718290  0.754150  0.764310  0.757890  0.768830  0.804890  0.839730  0.859520  0.876400  0.895520  0.907400  0.907170  0.891740  0.846800  0.774860  0.715180  0.697460  0.708560  0.727440  0.756120  0.797480  0.834410  0.856140  0.872800  0.884980  0.870100  0.819270  0.762750  0.732030  0.726580  0.729230  0.719080  0.681380  0.626630  0.587540  0.583440  0.601660  0.613860  0.596630  0.554980  0.525290  0.532580  0.561720  0.581440  0.579100  0.557520  0.522590  0.490730  0.485450  0.511990  0.548350  0.572450  0.584220  0.587190  0.577140  0.558630  0.541580  0.523650  0.503690  0.493870  0.495750  0.489520  0.466690  0.444210  0.436200  0.436310  0.441830  0.463910  0.491490  0.493010  0.473520  0.460700  0.442190  0.402110  0.377870  0.395100  0.413770  0.409080  0.414350  0.439060  0.434890  0.385800  0.350230  0.361820  0.378900  0.386770  0.424770  0.467290  0.435670  0.352960  0.312540  0.327070  0.359970  0.410030  0.462480  0.469750  0.426780  0.373100  0.327890  0.294580  0.292410  0.325250  0.352200  0.340160  0.320510  0.331480  0.350050  0.349150  0.353720  0.373860  0.380540  0.378610  0.405680  0.447460  0.449250  0.414890  0.406090  0.448950  0.508270  0.558070  0.616580  0.689020  0.750880  0.793390  0.827580  0.858670  0.873530  0.875000  0.874900  0.860740  0.834760  0.833700  0.893120  0.994450  1.127700  1.325900  1.539900  1.697600  1.831700  2.000700  2.172400  2.320700  2.505900  2.720700  2.901600  3.070900  3.263200  3.443800  3.593400  3.744100  3.865300  3.886700  3.820300  3.733200  3.627100  3.464900  3.280300  3.142400  3.065400  2.961400  2.777300  2.546400  2.282500  1.946600  1.504000  1.031300  0.577500  0.083059 -0.510050 -1.194700 -1.929700 -2.683500 -3.374400 -3.943800 -4.422900 -4.829900 -5.132100 -5.298000 -5.345800 -5.270000 -5.033200 -4.681600 -4.347700 -4.097900 -3.863600 -3.600200 -3.347900 -3.136000 -2.966500 -2.872400 -2.787700 -2.561200 -2.158700 -1.680400 -1.229900 -0.821150 -0.475200 -0.194690  0.059111  0.251590  0.289300  0.095377 -0.271190 -0.704920 -1.164100 -1.579500 -1.864500 -1.994700 -2.033400 -2.017200 -1.952000 -1.931000 -2.003300 
Shapelet   2  -0.138480 -0.132930 -0.134730 -0.132830 -0.125730 -0.149810 -0.002618  0.013774 -0.024970 -0.019486 -0.014090 -0.024075 -0.019495 -0.019357 -0.032772 -0.042355 -0.049205 -0.058684 -0.064940 -0.065250 -0.065042 -0.064819 -0.061061 -0.058603 -0.059244 -0.059115 -0.060700 -0.065086 -0.068988 -0.072962 -0.076297 -0.076438 -0.077208 -0.082206 -0.086893 -0.087626 -0.087557 -0.088076 -0.085958 -0.081564 -0.077865 -0.073860 -0.070440 -0.073124 -0.081328 -0.087908 -0.091442 -0.097030 -0.105190 -0.109960 -0.109860 -0.110300 -0.111080 -0.107780 -0.104340 -0.104470 -0.104250 -0.104760 -0.108820 -0.111070 -0.110060 -0.110190 -0.109050 -0.103780 -0.099429 -0.098884 -0.098779 -0.098560 -0.099662 -0.098416 -0.094155 -0.093892 -0.099918 -0.107690 -0.113940 -0.115710 -0.112060 -0.107130 -0.104230 -0.103910 -0.106930 -0.110480 -0.107470 -0.098042 -0.093074 -0.096920 -0.102350 -0.104620 -0.101480 -0.092451 -0.087437 -0.091730 -0.093410 -0.085761 -0.077770 -0.073761 -0.069866 -0.069366 -0.074500 -0.075843 -0.071519 -0.070408 -0.070169 -0.065904 -0.065647 -0.072033 -0.075948 -0.077686 -0.083233 -0.084071 -0.073233 -0.063586 -0.060552 -0.053745 -0.047145 -0.047798 -0.046077 -0.041753 -0.045685 -0.054739 -0.060070 -0.060023 -0.056383 -0.052909 -0.049407 -0.042156 -0.035535 -0.035892 -0.038288 -0.035447 -0.031248 -0.032956 -0.037755 -0.037595 -0.032843 -0.031234 -0.035431 -0.040259 -0.043099 -0.046994 -0.050111 -0.046034 -0.037970 -0.033435 -0.029737 -0.025618 -0.027139 -0.032689 -0.036298 -0.037106 -0.036751 -0.040833 -0.048036 -0.046316 -0.041882 -0.048844 -0.053590 -0.044345 -0.036362 -0.037832 -0.041741 -0.043720 -0.040864 -0.036756 -0.039144 -0.043299 -0.042528 -0.043448 -0.051189 -0.058676 -0.059875 -0.059612 -0.063986 -0.069642 -0.070062 -0.065637 -0.061039 -0.058878 -0.059128 -0.059715 -0.058954 -0.059012 -0.062205 -0.066566 -0.070135 -0.073980 -0.077250 -0.076569 -0.072629 -0.069978 -0.070370 -0.073102 -0.079084 -0.086841 -0.091817 -0.094249 -0.098344 -0.103210 -0.104720 -0.104410 -0.107340 -0.111760 -0.110550 -0.105270 -0.106220 -0.115090 -0.121660 -0.120070 -0.115990 -0.115070 -0.116990 -0.121150 -0.125680 -0.128140 -0.132430 -0.138180 -0.136800 -0.132800 -0.136140 -0.138600 -0.133080 -0.127830 -0.127760 -0.132540 -0.138030 -0.137610 -0.138280 -0.146250 -0.151400 -0.155230 -0.166580 -0.175660 -0.178000 -0.182130 -0.183230 -0.178090 -0.179410 -0.187990 -0.189380 -0.181580 -0.176600 -0.178050 -0.176060 -0.168530 -0.166750 -0.171530 -0.171090 -0.166700 -0.169270 -0.174590 -0.172280 -0.169890 -0.177150 -0.183760 -0.183120 -0.186800 -0.195230 -0.196520 -0.193800 -0.195120 -0.195930 -0.193830 -0.195240 -0.202480 -0.210120 -0.211920 -0.208350 -0.203990 -0.200520 -0.199770 -0.201870 -0.200440 -0.198630 -0.205700 -0.212130 -0.211170 -0.216020 -0.223580 -0.220530 -0.214570 -0.211780 -0.210480 -0.216600 -0.223550 -0.220240 -0.214810 -0.211620 -0.207140 -0.207390 -0.212510 -0.216240 -0.220160 -0.223560 -0.226450 -0.234540 -0.240330 -0.233250 -0.223860 -0.223620 -0.224580 -0.219860 -0.217940 -0.225280 -0.233730 -0.234230 -0.230030 -0.228260 -0.229090 -0.229190 -0.228600 -0.229070 -0.229230 -0.228290 -0.229370 -0.233330 -0.235720 -0.234270 -0.233760 -0.237180 -0.240800 -0.244530 -0.246840 -0.237790 -0.224480 -0.227930 -0.242760 -0.250680 -0.252440 -0.250950 -0.246520 -0.247350 -0.252340 -0.252340 -0.250470 -0.252020 -0.252350 -0.248690 -0.245520 -0.245470 -0.247680 -0.253050 -0.260990 -0.265050 -0.261740 -0.257440 -0.258910 -0.264060 -0.267940 -0.269140 -0.268250 -0.268030 -0.271070 -0.275070 -0.278690 -0.283470 -0.285370 -0.281170 -0.277750 -0.281420 -0.289420 -0.293820 -0.289240 -0.281220 -0.276960 -0.272860 -0.268690 -0.270670 -0.275270 -0.278790 -0.284010 -0.284610 -0.276150 -0.270930 -0.276480 -0.284320 -0.288610 -0.292320 -0.296250 -0.297690 -0.296050 -0.292130 -0.287470 -0.285130 -0.285330 -0.287100 -0.294070 -0.306130 -0.312120 -0.304530 -0.292630 -0.288920 -0.292640 -0.296450 -0.297410 -0.296360 -0.296450 -0.299970 -0.303080 -0.302600 -0.304020 -0.310540 -0.314030 -0.310430 -0.307670 -0.308140 -0.307830 -0.308620 -0.308610 -0.304060 -0.303090 -0.307770 -0.306740 -0.300020 -0.296910 -0.297190 -0.296060 -0.291940 -0.284930 -0.276760 -0.269400 -0.262180 -0.254020 -0.246680 -0.239640 -0.231540 -0.228780 -0.231020 -0.225070 -0.212910 -0.207730 -0.204160 -0.195700 -0.192740 -0.196560 -0.195450 -0.190310 -0.189650 -0.189590 -0.185070 -0.184930 -0.194290 -0.198960 -0.190190 -0.183630 -0.190170 -0.196990 -0.195280 -0.191160 -0.188370 -0.189160 -0.194000 -0.193580 -0.184230 -0.175140 -0.171270 -0.172230 -0.179150 -0.186390 -0.183980 -0.175370 -0.171180 -0.166960 -0.155650 -0.146510 -0.144150 -0.138440 -0.127070 -0.115960 -0.105020 -0.092904 -0.081928 -0.076181 -0.077804 -0.081836 -0.082681 -0.080476 -0.076168 -0.074262 -0.080097 -0.087554 -0.090827 -0.097996 -0.110310 -0.113270 -0.106910 -0.110400 -0.123720 -0.127000 -0.121340 -0.121040 -0.119980 -0.109710 -0.100400 -0.098770 -0.098805 -0.098449 -0.099764 -0.098628 -0.091457 -0.083846 -0.081907 -0.085208 -0.090612 -0.093148 -0.089749 -0.085762 -0.087878 -0.095412 -0.102490 -0.104480 -0.103980 -0.106380 -0.110460 -0.114040 -0.118650 -0.121560 -0.121250 -0.123130 -0.127520 -0.131200 -0.135400 -0.138680 -0.141690 -0.149080 -0.155900 -0.159060 -0.165920 -0.172830 -0.172750 -0.173590 -0.178650 -0.182180 -0.188430 -0.202800 -0.218840 -0.228030 -0.228690 -0.224840 -0.220860 -0.217110 -0.213060 -0.211100 -0.212210 -0.212370 -0.212100 -0.219340 -0.231660 -0.236410 -0.234360 -0.237290 -0.247500 -0.258970 -0.267050 -0.269260 -0.268710 -0.275550 -0.288230 -0.290550 -0.285340 -0.289900 -0.297790 -0.300530 -0.311030 -0.327930 -0.335670 -0.338080 -0.343170 -0.347000 -0.349610 -0.354480 -0.358380 -0.360520 -0.366350 -0.374460 -0.377030 -0.375980 -0.379570 -0.387470 -0.394220 -0.398010 -0.399180 -0.398370 -0.398150 -0.400920 -0.405310 -0.409150 -0.410930 -0.409390 -0.409070 -0.413630 -0.415220 -0.410750 -0.410730 -0.417330 -0.421110 -0.421080 -0.421110 -0.417280 -0.410490 -0.410950 -0.415550 -0.411320 -0.402010 -0.398600 -0.398920 -0.398380 -0.398470 -0.398930 -0.398380 -0.398450 -0.399080 -0.398190 -0.398230 -0.400100 -0.396700 -0.388520 -0.385780 -0.387810 -0.387550 -0.387000 -0.386980 -0.382850 -0.377060 -0.376460 -0.380760 -0.385260 -0.387830 -0.387710 -0.384310 -0.380730 -0.381270 -0.383000 -0.380060 -0.376130 -0.378370 -0.382690 -0.382080 -0.380490 -0.382510 -0.382330 -0.375520 -0.368020 -0.364880 -0.364480 -0.364680 -0.364680 -0.366590 -0.372870 -0.376340 -0.370100 -0.362210 -0.359330 -0.356110 -0.352100 -0.353030 -0.355440 -0.349970 -0.337730 -0.330000 -0.333020 -0.341390 -0.344490 -0.339470 -0.336320 -0.340200 -0.341610 -0.336870 -0.335180 -0.336590 -0.331510 -0.324850 -0.326460 -0.325700 -0.316380 -0.314650 -0.319410 -0.316280 -0.313290 -0.313960 -0.309600 -0.309040 -0.313740 -0.311100 -0.306440 -0.302860 -0.294500 -0.290440 -0.291280 -0.287290 -0.285430 -0.285690 -0.278330 -0.272550 -0.274170 -0.274410 -0.274470 -0.274330 -0.267430 -0.259700 -0.257280 -0.256690 -0.258430 -0.262860 -0.266600 -0.270370 -0.274220 -0.277260 -0.283470 -0.291220 -0.287570 -0.270840 -0.262950 -0.275840 -0.295400 -0.314090 -0.334050 -0.349550 -0.365140 -0.386300 -0.394960 -0.381250 -0.356660 -0.324320 -0.284280 -0.243160 -0.201600 -0.159490 -0.113690 -0.054492  0.011461  0.068912  0.121070  0.175590  0.233330  0.301750  0.387470  0.489520  0.604340  0.723480  0.842460  0.963350  1.073700  1.163100  1.255000  1.377100  1.529900  1.704700  1.891300  2.075700  2.251600  2.423100  2.608500  2.821200  3.038800  3.242600  3.458700  3.707200  3.976100  4.245200  4.485400  4.690500  4.896200  5.114400  5.324800  5.525700  5.717200  5.893800  6.058500  6.196700  6.298000  6.389700 
Shapelet   3   0.089836  0.089730  0.089581  0.089442  0.091232  0.086843  0.068376  0.047118  0.038589  0.039773  0.040378  0.039961  0.039966  0.039603  0.041007  0.040045  0.026246  0.004128 -0.009948 -0.011054 -0.008398 -0.009946 -0.010757 -0.007841 -0.010294 -0.011856 -0.004922 -0.012559 -0.032504 -0.026737 -0.006780 -0.007210 -0.012843 -0.008181 -0.007899 -0.019916 -0.040941 -0.057890 -0.060221 -0.059427 -0.059698 -0.057328 -0.061695 -0.060700 -0.041510 -0.036036 -0.058005 -0.078426 -0.086862 -0.084421 -0.067494 -0.054976 -0.059701 -0.061948 -0.055514 -0.060466 -0.078271 -0.087422 -0.083601 


; cmd = /home/grad00/soren885/capstone/ShapeletResearch/Execs/FastShapelet /home/grad00/soren885/capstone/Shapelet_Datasets/UCR_Master/CinC_ECG_torso_TRAIN 4 40 820 1 2 10 correlation 0 0 10 ./replications/CinC_ECG_torso/CinC_ECG_torso_correlation_unnormed_NOCID_REP05_tree.txt ./replications/CinC_ECG_torso/CinC_ECG_torso_correlation_unnormed_NOCID_REP05_time.txt
; time =>  989.169  10.978  51.734   4.081 917.554 
; command = /home/grad00/soren885/capstone/ShapeletResearch/Execs/Classify /home/grad00/soren885/capstone/Shapelet_Datasets/UCR_Master/CinC_ECG_torso_TEST 4 1380 correlation 0 0 ./replications/CinC_ECG_torso/CinC_ECG_torso_correlation_unnormed_NOCID_REP05_tree.txt ./replications/CinC_ECG_torso/CinC_ECG_torso_correlation_unnormed_NOCID_REP05_acc.txt
; accuracy= 76.522   Correct:1056 , Wrong: 324


;   == Confusion Matrix ==
;   real |   3    2    4    1 
;   -----+------------------------
;   p  3 | 262   81    0    9 
;   p  2 |  76  226    0   16 
;   p  4 |   1   27  341   98 
;   p  1 |   4    8    4  227 

