;Shapelet Tree 

;random seed:1508719893, rand()=1782724763, rand()=2089326459
;command = /home/grad00/soren885/capstone/ShapeletResearch/Execs/FastShapelet /home/grad00/soren885/capstone/Shapelet_Datasets/UCR_Master/CinC_ECG_torso_TRAIN 4 40 820 1 2 10 euclidean 0 0 10 ./replications/CinC_ECG_torso/CinC_ECG_torso_euclidean_unnormed_NOCID_REP21_tree.txt ./replications/CinC_ECG_torso/CinC_ECG_torso_euclidean_unnormed_NOCID_REP21_time.txt 

;Local Class:   0  1  2  3 
;Real  Class:   1  3  4  2 

;Node ID class   obj  pos  len  dist_th 
TreeSize: 14 
NonL  1    --      9   56  707  36.8207 ==>   0  12   0  12  /   5   0  10   1 
NonL  2    --      4  1147  419   4.7483 ==>   0   0   0  10  /   0  12   0   2 
NonL  3    --     12    0  701  37.2412 ==>   5   0   0   1  /   0   0  10   0 
Leaf  4     2    
NonL  5    --      4  870  747  21.5014 ==>   0  12   0   0  /   0   0   0   2 
NonL  6    --      2    0  747  19.3633 ==>   0   0   0   1  /   5   0   0   0 
Leaf  7     4    
Leaf 10     3    
Leaf 11     2    
Leaf 12     2    
Leaf 13     1    

;Shapelet id   <data>
Shapelet   1  -0.124190 -0.121950 -0.116400 -0.108660 -0.102600 -0.099483 -0.096268 -0.092429 -0.094324 -0.103770 -0.111090 -0.110770 -0.111880 -0.119810 -0.125150 -0.124110 -0.126870 -0.136560 -0.143070 -0.142130 -0.141610 -0.145920 -0.149080 -0.146420 -0.142030 -0.141620 -0.144950 -0.148690 -0.150280 -0.148700 -0.147710 -0.151400 -0.155260 -0.153070 -0.148790 -0.148390 -0.149270 -0.148920 -0.150910 -0.155480 -0.157090 -0.153890 -0.149910 -0.148380 -0.149020 -0.151830 -0.156780 -0.160770 -0.162560 -0.167060 -0.175640 -0.180850 -0.180380 -0.181610 -0.186020 -0.187600 -0.186510 -0.186660 -0.185850 -0.181610 -0.177040 -0.173910 -0.170230 -0.166860 -0.167100 -0.169270 -0.167860 -0.163300 -0.161480 -0.162000 -0.159580 -0.155530 -0.154640 -0.155410 -0.155090 -0.156560 -0.160950 -0.164840 -0.168670 -0.175810 -0.183920 -0.186790 -0.185260 -0.187120 -0.194700 -0.201000 -0.200290 -0.195730 -0.192840 -0.192510 -0.193040 -0.193030 -0.192580 -0.192850 -0.193370 -0.192510 -0.192040 -0.194990 -0.198870 -0.199870 -0.198790 -0.195590 -0.189620 -0.186410 -0.189910 -0.192890 -0.189280 -0.185410 -0.186180 -0.187100 -0.186640 -0.189250 -0.195140 -0.198960 -0.197710 -0.192900 -0.188120 -0.186410 -0.186600 -0.186380 -0.186560 -0.187200 -0.186210 -0.185500 -0.189040 -0.192770 -0.190710 -0.185840 -0.182120 -0.178860 -0.179300 -0.186570 -0.193230 -0.193300 -0.193480 -0.197800 -0.201840 -0.205540 -0.210320 -0.211130 -0.206740 -0.204460 -0.205390 -0.202910 -0.197980 -0.197680 -0.201060 -0.199740 -0.192040 -0.185830 -0.185630 -0.187270 -0.186820 -0.186070 -0.186720 -0.186960 -0.186230 -0.186280 -0.188590 -0.193200 -0.197630 -0.199420 -0.199200 -0.199110 -0.199140 -0.198820 -0.199380 -0.199680 -0.197150 -0.193110 -0.191700 -0.193280 -0.193580 -0.191870 -0.192440 -0.196440 -0.199360 -0.199260 -0.199220 -0.199300 -0.198190 -0.199450 -0.203720 -0.205580 -0.205070 -0.207690 -0.211730 -0.212360 -0.211130 -0.207750 -0.199610 -0.192970 -0.195050 -0.200160 -0.200140 -0.198110 -0.198950 -0.199920 -0.198830 -0.198430 -0.199950 -0.199610 -0.195760 -0.192640 -0.192520 -0.192870 -0.192750 -0.193430 -0.192720 -0.188840 -0.185850 -0.186090 -0.188230 -0.192850 -0.198220 -0.198380 -0.193880 -0.193410 -0.198700 -0.203300 -0.206040 -0.209850 -0.212910 -0.212000 -0.210110 -0.212310 -0.216790 -0.217370 -0.212740 -0.209320 -0.212140 -0.217020 -0.217210 -0.212960 -0.208720 -0.205290 -0.201260 -0.198490 -0.198690 -0.199630 -0.199180 -0.198570 -0.199410 -0.199730 -0.197410 -0.193340 -0.189220 -0.186100 -0.185440 -0.188630 -0.192570 -0.191590 -0.185750 -0.180820 -0.181140 -0.185390 -0.189870 -0.193050 -0.196280 -0.200940 -0.204790 -0.205650 -0.205400 -0.205540 -0.205180 -0.204970 -0.206240 -0.205620 -0.201270 -0.199180 -0.202900 -0.207960 -0.211270 -0.213110 -0.210830 -0.203280 -0.196180 -0.193150 -0.192330 -0.192990 -0.193800 -0.191410 -0.187320 -0.186150 -0.186620 -0.186030 -0.187550 -0.191710 -0.193680 -0.192920 -0.192700 -0.192780 -0.192390 -0.194600 -0.198830 -0.198430 -0.191040 -0.182690 -0.179410 -0.180160 -0.180720 -0.180300 -0.180220 -0.180420 -0.180380 -0.180360 -0.180360 -0.180190 -0.180530 -0.180690 -0.178610 -0.174150 -0.169680 -0.167400 -0.167300 -0.169480 -0.173780 -0.176240 -0.172870 -0.168140 -0.169390 -0.173730 -0.174440 -0.174330 -0.178070 -0.181620 -0.180940 -0.177830 -0.173670 -0.169300 -0.167640 -0.168070 -0.166030 -0.161480 -0.157780 -0.153680 -0.146160 -0.136980 -0.130510 -0.126840 -0.122950 -0.119110 -0.116220 -0.112150 -0.107000 -0.105380 -0.106410 -0.102340 -0.094010 -0.090606 -0.093199 -0.094333 -0.091054 -0.087293 -0.084568 -0.079855 -0.070128 -0.056339 -0.045071 -0.039791 -0.036494 -0.032378 -0.029928 -0.030374 -0.029031 -0.024364 -0.020107 -0.017066 -0.013554 -0.009184 -0.005651 -0.002782  0.001993  0.009085  0.017365  0.024691  0.029760  0.032468  0.032685  0.031394  0.027367  0.023363  0.026271  0.034257  0.039649  0.042486  0.051061  0.063174  0.070882  0.078370  0.089560  0.101190  0.112250  0.125930  0.141630  0.156040  0.171650  0.186530  0.195630  0.202110  0.209710  0.215390  0.214540  0.211640  0.214110  0.221280  0.228450  0.231890  0.233840  0.238780  0.244130  0.244030  0.236460  0.225670  0.214680  0.203110  0.192310  0.178420  0.157860  0.135450  0.116180  0.097925  0.078329  0.063454  0.053308  0.041632  0.031569  0.027078  0.024663  0.020589  0.019647  0.026320  0.036783  0.048680  0.059990  0.068935  0.075890  0.080487  0.082525  0.082320  0.082542  0.082612  0.077793  0.067516  0.055819  0.046866  0.039887  0.032300  0.025282  0.020981  0.018817  0.015050  0.008068  0.000632 -0.006615 -0.014592 -0.022118 -0.027020 -0.030168 -0.034102 -0.037423 -0.040608 -0.047995 -0.060402 -0.073321 -0.081810 -0.085629 -0.087679 -0.091754 -0.100940 -0.113710 -0.125520 -0.133970 -0.141130 -0.149140 -0.155860 -0.159750 -0.163010 -0.166780 -0.170270 -0.174240 -0.180950 -0.189450 -0.196790 -0.203410 -0.211260 -0.219560 -0.225370 -0.228730 -0.233580 -0.241850 -0.250710 -0.256070 -0.256350 -0.254480 -0.254910 -0.258620 -0.261950 -0.262130 -0.261460 -0.261700 -0.260300 -0.255070 -0.249710 -0.249930 -0.254080 -0.257700 -0.261650 -0.266200 -0.268010 -0.267600 -0.268780 -0.268230 -0.263290 -0.262050 -0.266510 -0.267310 -0.262360 -0.260050 -0.261970 -0.262060 -0.261930 -0.266450 -0.272480 -0.274150 -0.273190 -0.275560 -0.279590 -0.282030 -0.286890 -0.295150 -0.300010 -0.299420 -0.299520 -0.299390 -0.292820 -0.285150 -0.284910 -0.288620 -0.287260 -0.281960 -0.280550 -0.281460 -0.277520 -0.269320 -0.263480 -0.261520 -0.260880 -0.262850 -0.266940 -0.270220 -0.274530 -0.281810 -0.288830 -0.292190 -0.294870 -0.299200 -0.300940 -0.297890 -0.293870 -0.291580 -0.287240 -0.281070 -0.281180 -0.285930 -0.285360 -0.280860 -0.280190 -0.280120 -0.275940 -0.273690 -0.274390 -0.271370 -0.267840 -0.270680 -0.275730 -0.275210 -0.271260 -0.267870 -0.261570 -0.252400 -0.248280 -0.252390 -0.255490 -0.251530 -0.249210 -0.253370 -0.256570 -0.255530 -0.256910 -0.262900 -0.267250 -0.267900 -0.267880 -0.268140 -0.267850 -0.267350 -0.268990 -0.273130 -0.276110 -0.273930 -0.266630 -0.259330 -0.255900 -0.254170 -0.249290 -0.241060 -0.235640 -0.235940 -0.236680 -0.231200 -0.220290 -0.209260 -0.198540 -0.186790 -0.180540 -0.183510 -0.186930 -0.186940 -0.188090 -0.192430 -0.195930 -0.199680 -0.203870 -0.193710 -0.170530 -0.141370 -0.097939 -0.031831  0.054217  0.138180  0.224910  0.327020  0.442420  0.573460  0.714270  0.875210  1.049300  1.225000  1.414600  1.624900  1.872400  2.138800  2.405100  2.666000  2.906200  3.139300  3.367500  3.604600  3.856500  4.111300  4.386800  4.671500  4.961400  5.252600  5.527800  5.782100  5.985000  6.155400  6.329700  6.504800  6.654100  6.744600  6.802000  6.841100  6.854300  6.856800  6.842300  6.801800  6.736600  6.661500  6.588400  6.509700  6.433300  6.357100  6.225400  6.002100  5.683800  5.309200  4.912300  4.485100  4.023900  3.489900  2.859200  2.133900  1.322800  0.432550 -0.548460 -1.545400 -2.434200 -3.115500 -3.546700 -3.770400 -3.846000 -3.851000 -3.833200 -3.800500 -3.758600 -3.700000 -3.630700 -3.546400 -3.447900 -3.348000 -3.247800 -3.142700 -3.030300 -2.915100 
Shapelet   2   0.131160  0.134760  0.140550  0.143400  0.145750  0.150640  0.157160  0.161950  0.164320  0.167160  0.169690  0.171780  0.174520  0.178850  0.184560  0.189420  0.194660  0.199910  0.203520  0.205610  0.205620  0.205110  0.204960  0.206780  0.209850  0.210270  0.209400  0.209210  0.210200  0.209990  0.208310  0.210620  0.215920  0.219970  0.222280  0.226020  0.232260  0.237230  0.242090  0.247460  0.251200  0.253060  0.252740  0.253030  0.255710  0.260960  0.266050  0.268140  0.271180  0.274080  0.273340  0.270440  0.268870  0.270680  0.273060  0.275990  0.278680  0.278700  0.278940  0.281100  0.284230  0.283750  0.279790  0.278970  0.281210  0.283880  0.286350  0.290850  0.296370  0.298570  0.301560  0.306990  0.311520  0.313450  0.314610  0.318810  0.321640  0.321180  0.321800  0.325690  0.331750  0.336510  0.342030  0.347340  0.348390  0.347760  0.347490  0.347190  0.344320  0.341460  0.343960  0.348930  0.353370  0.355730  0.357900  0.360980  0.361160  0.360310  0.360200  0.361130  0.361000  0.359190  0.361740  0.367070  0.371010  0.373470  0.375890  0.378210  0.377730  0.378530  0.381720  0.384150  0.387050  0.389510  0.391450  0.394030  0.399250  0.404160  0.402240  0.397990  0.395600  0.393890  0.391250  0.387620  0.386170  0.383720  0.379650  0.378080  0.379920  0.382520  0.380180  0.374920  0.370210  0.365010  0.360070  0.356360  0.357060  0.360250  0.360430  0.356030  0.347770  0.340950  0.336150  0.331290  0.326390  0.320640  0.316010  0.310940  0.305180  0.300730  0.297290  0.295520  0.293040  0.289190  0.283990  0.277600  0.274060  0.273630  0.274920  0.274910  0.271220  0.265090  0.256980  0.250080  0.245360  0.240840  0.235510  0.229520  0.225650  0.220810  0.212510  0.205710  0.202690  0.199790  0.192010  0.182630  0.175890  0.170240  0.165600  0.160670  0.154200  0.146420  0.138370  0.131000  0.123000  0.116180  0.111520  0.106900  0.101510  0.095671  0.092032  0.089802  0.086006  0.080388  0.074327  0.070728  0.068423  0.064752  0.059226  0.053132  0.049350  0.046884  0.044168  0.041813  0.039765  0.036292  0.028888  0.019692  0.012402  0.008292  0.006893  0.004888  0.000463 -0.004787 -0.008328 -0.010303 -0.012940 -0.015481 -0.017934 -0.020955 -0.023105 -0.024895 -0.029217 -0.037140 -0.044606 -0.048768 -0.051484 -0.053946 -0.056461 -0.059269 -0.061732 -0.062539 -0.062004 -0.063787 -0.069094 -0.074256 -0.075731 -0.074933 -0.076605 -0.081384 -0.086529 -0.091142 -0.096552 -0.102420 -0.106090 -0.108410 -0.111640 -0.113770 -0.112210 -0.108660 -0.106120 -0.103860 -0.101130 -0.100100 -0.101080 -0.101430 -0.100260 -0.100450 -0.103090 -0.105340 -0.107250 -0.111770 -0.117210 -0.118830 -0.118100 -0.120090 -0.123410 -0.123330 -0.120280 -0.118120 -0.118020 -0.118070 -0.117890 -0.119050 -0.122060 -0.125440 -0.126750 -0.124530 -0.120080 -0.117980 -0.120170 -0.122620 -0.122670 -0.122420 -0.122530 -0.121790 -0.122620 -0.127460 -0.132870 -0.135170 -0.135490 -0.135360 -0.135050 -0.135840 -0.138500 -0.141490 -0.143840 -0.146310 -0.148980 -0.151610 -0.153510 -0.152920 -0.150110 -0.148150 -0.148230 -0.148190 -0.148110 -0.150110 -0.152840 -0.153290 -0.152210 -0.152350 -0.153270 -0.152550 -0.150070 -0.147470 -0.145070 -0.141170 -0.135520 -0.131360 -0.131520 -0.134380 -0.136030 -0.135460 -0.134910 -0.135530 -0.135750 -0.134880 -0.135130 -0.136380 -0.134930 -0.131610 -0.131660 -0.134710 -0.137010 -0.139960 -0.143660 -0.143170 -0.140050 -0.140120 -0.139660 -0.134180 -0.130740 -0.133870 -0.136490 -0.135420 -0.136460 -0.140760 -0.143520 -0.144660 -0.147730 -0.151610 -0.152550 -0.151970 -0.153930 -0.156680 -0.156830 -0.157100 -0.159860 -0.161590 -0.161170 -0.162540 -0.165680 -0.168010 -0.171330 -0.176740 -0.180960 -0.182780 -0.184870 -0.188010 -0.190560 -0.192810 -0.195530 -0.196780 -0.195360 -0.194670 -0.197660 -0.200130 -0.198000 -0.195690 -0.197830 -0.201680 -0.203930 -0.206230 -0.208860 -0.209330 -0.208330 -0.208420 -0.209260 -0.208720 -0.206220 -0.203790 -0.203690 -0.206070 -0.208610 -0.209300 -0.208360 -0.206020 -0.201800 -0.196450 -0.192460 -0.191440 -0.191710 -0.190640 -0.187800 -0.184770 -0.182610 -0.180250 -0.177160 -0.174590 -0.173790 -0.174210 -0.174320 -0.174130 -0.174240 -0.173410 -0.170020 -0.166130 -0.165970 
Shapelet   3  -0.168680 -0.182140 -0.186620 -0.195590 -0.186620 -0.173170 -0.173170 -0.182140 -0.191100 -0.195590 -0.182140 -0.164200 -0.150750 -0.141780 -0.132810 -0.137300 -0.141780 -0.150750 -0.173170 -0.182140 -0.173170 -0.182140 -0.200070 -0.195590 -0.204560 -0.204560 -0.204560 -0.204560 -0.213530 -0.209040 -0.200070 -0.186620 -0.177650 -0.168680 -0.159720 -0.173170 -0.218010 -0.280790 -0.339080 -0.374950 -0.424280 -0.496020 -0.558800 -0.608130 -0.657450 -0.706780  0.068975  0.068975  0.077943  0.082427  0.091395  0.109330  0.131750  0.131750  0.113820  0.100360  0.095879  0.091395  0.100360  0.113820  0.122780  0.122780  0.109330  0.109330  0.113820  0.113820  0.109330  0.109330  0.113820  0.113820  0.118300  0.127270  0.140720  0.140720  0.127270  0.127270  0.136240  0.140720  0.136240  0.127270  0.122780  0.113820  0.113820  0.122780  0.127270  0.122780  0.131750  0.140720  0.140720  0.145200  0.145200  0.149690  0.158660  0.154170  0.145200  0.136240  0.149690  0.149690  0.145200  0.149690  0.145200  0.127270  0.113820  0.109330  0.113820  0.122780  0.127270  0.118300  0.118300  0.122780  0.122780  0.122780  0.127270  0.127270  0.109330  0.104850  0.118300  0.131750  0.136240  0.122780  0.104850  0.091395  0.077943  0.082427  0.095879  0.100360  0.104850  0.109330  0.095879  0.073459  0.082427  0.091395  0.095879  0.077943  0.068975  0.068975  0.073459  0.068975  0.064490  0.073459  0.086911  0.077943  0.055522  0.051038  0.055522  0.060006  0.046554  0.028617  0.024133  0.028617  0.042070  0.055522  0.055522  0.051038  0.060006  0.051038  0.037586  0.028617  0.015165  0.006197  0.001713  0.006197 -0.002772 -0.002772  0.006197  0.010681  0.010681  0.001713 -0.007256 -0.007256 -0.011740 -0.011740 -0.007256 -0.011740 -0.020708 -0.020708 -0.025192 -0.016224 -0.016224 -0.025192 -0.038644 -0.043129 -0.034160 -0.025192 -0.025192 -0.038644 -0.056581 -0.056581 -0.034160 -0.020708 -0.025192 -0.029676 -0.020708 -0.025192 -0.034160 -0.038644 -0.034160 -0.038644 -0.047613 -0.056581 -0.061065 -0.056581 -0.056581 -0.056581 -0.056581 -0.056581 -0.056581 -0.061065 -0.061065 -0.052097 -0.043129 -0.038644 -0.043129 -0.043129 -0.043129 -0.065549 -0.079002 -0.083486 -0.079002 -0.083486 -0.074517 -0.070033 -0.074517 -0.074517 -0.070033 -0.074517 -0.070033 -0.061065 -0.056581 -0.065549 -0.065549 -0.061065 -0.061065 -0.065549 -0.065549 -0.061065 -0.061065 -0.061065 -0.074517 -0.079002 -0.074517 -0.083486 -0.096938 -0.096938 -0.083486 -0.074517 -0.070033 -0.079002 -0.079002 -0.070033 -0.061065 -0.056581 -0.052097 -0.056581 -0.070033 -0.079002 -0.079002 -0.070033 -0.070033 -0.079002 -0.083486 -0.079002 -0.079002 -0.083486 -0.087970 -0.074517 -0.052097 -0.043129 -0.047613 -0.052097 -0.061065 -0.061065 -0.061065 -0.065549 -0.074517 -0.079002 -0.070033 -0.061065 -0.052097 -0.061065 -0.074517 -0.083486 -0.096938 -0.096938 -0.083486 -0.074517 -0.070033 -0.074517 -0.079002 -0.079002 -0.079002 -0.074517 -0.074517 -0.074517 -0.079002 -0.083486 -0.070033 -0.065549 -0.056581 -0.056581 -0.061065 -0.074517 -0.083486 -0.092454 -0.092454 -0.083486 -0.083486 -0.083486 -0.079002 -0.074517 -0.087970 -0.083486 -0.065549 -0.056581 -0.056581 -0.056581 -0.052097 -0.047613 -0.047613 -0.052097 -0.065549 -0.074517 -0.074517 -0.070033 -0.074517 -0.070033 -0.083486 -0.083486 -0.079002 -0.083486 -0.083486 -0.074517 -0.061065 -0.056581 -0.056581 -0.056581 -0.052097 -0.047613 -0.043129 -0.047613 -0.056581 -0.074517 -0.079002 -0.070033 -0.070033 -0.070033 -0.074517 -0.079002 -0.070033 -0.061065 -0.056581 -0.043129 -0.038644 -0.056581 -0.065549 -0.065549 -0.056581 -0.056581 -0.056581 -0.056581 -0.061065 -0.065549 -0.065549 -0.065549 -0.061065 -0.061065 -0.070033 -0.070033 -0.061065 -0.061065 -0.061065 -0.061065 -0.056581 -0.043129 -0.038644 -0.052097 -0.061065 -0.052097 -0.047613 -0.052097 -0.065549 -0.079002 -0.083486 -0.087970 -0.083486 -0.079002 -0.070033 -0.070033 -0.079002 -0.087970 -0.074517 -0.047613 -0.034160 -0.034160 -0.034160 -0.038644 -0.052097 -0.052097 -0.056581 -0.056581 -0.052097 -0.052097 -0.056581 -0.056581 -0.038644 -0.034160 -0.038644 -0.047613 -0.052097 -0.056581 -0.056581 -0.052097 -0.043129 -0.056581 -0.065549 -0.070033 -0.056581 -0.052097 -0.056581 -0.061065 -0.061065 -0.061065 -0.056581 -0.047613 -0.056581 -0.052097 -0.052097 -0.047613 -0.052097 -0.056581 -0.052097 -0.047613 -0.038644 -0.029676 -0.025192 -0.034160 -0.038644 -0.043129 -0.043129 -0.038644 -0.043129 -0.061065 -0.065549 -0.061065 -0.052097 -0.047613 -0.047613 -0.043129 -0.034160 -0.038644 -0.047613 -0.034160 -0.020708 -0.016224 -0.016224 -0.007256  0.001713  0.006197  0.019649  0.024133  0.037586  0.042070  0.051038  0.073459  0.095879  0.104850  0.100360  0.104850  0.113820  0.118300  0.127270  0.131750  0.131750  0.136240  0.140720  0.158660  0.181080  0.181080  0.176590  0.181080  0.185560  0.190050  0.190050  0.190050  0.194530  0.194530  0.194530  0.194530  0.207980  0.234890  0.248340  0.257310  0.252820  0.239370  0.230400  0.234890  0.252820  0.266280  0.266280  0.270760  0.270760  0.252820  0.234890  0.216950  0.203500  0.190050  0.176590  0.158660  0.140720  0.127270  0.127270  0.127270  0.104850  0.073459  0.046554  0.006197 -0.029676 -0.061065 -0.087970 -0.101420 -0.123840 -0.146260 -0.173170 -0.191100 -0.213530 -0.222490 -0.222490 -0.209040 -0.195590 -0.186620 -0.177650 -0.191100 -0.209040 -0.231460 -0.235950 -0.235950 -0.240430 -0.244910 -0.231460 -0.222490 -0.213530 -0.218010 -0.218010 -0.213530 -0.204560 -0.191100 -0.168680 -0.141780 -0.110390 -0.092454 -0.083486 -0.087970 -0.083486 -0.079002 -0.070033 -0.056581 -0.047613 -0.034160 -0.029676 -0.025192 -0.038644 -0.070033 -0.083486 -0.092454 -0.110390 -0.132810 -0.146260 -0.150750 -0.155230 -0.155230 -0.141780 -0.123840 -0.105910 -0.114870 -0.141780 -0.155230 -0.150750 -0.150750 -0.155230 -0.168680 -0.164200 -0.150750 -0.146260 -0.137300 -0.132810 -0.128330 -0.123840 -0.123840 -0.123840 -0.128330 -0.110390 -0.101420 -0.092454 -0.083486 -0.074517 -0.079002 -0.092454 -0.096938 -0.092454 -0.083486 -0.087970 -0.096938 -0.105910 -0.105910 -0.083486 -0.061065 -0.056581 -0.061065 -0.074517 -0.083486 -0.070033 -0.070033 -0.070033 -0.056581 -0.052097 -0.065549 -0.056581 -0.056581 -0.056581 -0.052097 -0.043129 -0.047613 -0.056581 -0.061065 -0.070033 -0.092454 -0.132810 -0.168680 -0.231460 -0.307690 -0.361500 -0.401860 -0.482570 -0.585710 -0.679870 -0.765070 -0.827850 -0.868210 -0.881660 -0.854750 -0.760590 -0.617100 -0.401860 -0.164200 -0.038644 -0.061065 -0.271820 -0.679870 -1.182100 -1.617100 -2.020600 -2.585600 -3.182000 -3.751500 -4.312000 -4.989100 -5.715500 -6.316400 -6.755900 -7.024900 -7.190800 -7.329800 -7.437400 -7.455400 -7.388100 -7.334300 -7.338800 -7.361200 -7.361200 -7.267100 -7.137000 -6.926300 -6.675100 -6.459900 -6.222200 -5.980100 -5.755900 -5.576500 -5.455500 -5.343400 -5.141600 -4.868000 -4.603500 -4.316500 -4.016100 -3.711100 -3.442100 -3.249300 -3.105800 -2.975700 -2.760500 -2.424200 -2.052000 -1.697800 -1.357000 -1.029600 -0.738170 -0.491540 -0.294240 -0.141780 -0.025192 
Shapelet   5  -1.913500 -1.812500 -1.714900 -1.622800 -1.541200 -1.470600 -1.406500 -1.349100 -1.296900 -1.250300 -1.214000 -1.184800 -1.156900 -1.131400 -1.105600 -1.075500 -1.044800 -1.015100 -0.987990 -0.970840 -0.960570 -0.948940 -0.937850 -0.926920 -0.914220 -0.904230 -0.889210 -0.860300 -0.830230 -0.804740 -0.776430 -0.754430 -0.744920 -0.734980 -0.722320 -0.715810 -0.714790 -0.715310 -0.715650 -0.711410 -0.697440 -0.673790 -0.650640 -0.638290 -0.631610 -0.623270 -0.617290 -0.614120 -0.609770 -0.606810 -0.603140 -0.594950 -0.589100 -0.585910 -0.580670 -0.579830 -0.580170 -0.572690 -0.566420 -0.563340 -0.555140 -0.550360 -0.551550 -0.545930 -0.535980 -0.529320 -0.524050 -0.523560 -0.528460 -0.530020 -0.527000 -0.523460 -0.519300 -0.516280 -0.517310 -0.520980 -0.523740 -0.523330 -0.519850 -0.515100 -0.511930 -0.513870 -0.520150 -0.523240 -0.519690 -0.516080 -0.517400 -0.521300 -0.523030 -0.517880 -0.508790 -0.505200 -0.506220 -0.505880 -0.506450 -0.506320 -0.499430 -0.491120 -0.489250 -0.492250 -0.496900 -0.500570 -0.500770 -0.500030 -0.500600 -0.498310 -0.489300 -0.477960 -0.474930 -0.481320 -0.483600 -0.478630 -0.478940 -0.483660 -0.483640 -0.484450 -0.489340 -0.487710 -0.477180 -0.466380 -0.458280 -0.452030 -0.449640 -0.449720 -0.448800 -0.449740 -0.451260 -0.444240 -0.432210 -0.426930 -0.426960 -0.427000 -0.426930 -0.426520 -0.427040 -0.424950 -0.414050 -0.404070 -0.406590 -0.413360 -0.415740 -0.416120 -0.412870 -0.403520 -0.394690 -0.392190 -0.393110 -0.393260 -0.391780 -0.386660 -0.375570 -0.363630 -0.358980 -0.359300 -0.357310 -0.352890 -0.345910 -0.335670 -0.330770 -0.334680 -0.337290 -0.336370 -0.336760 -0.333320 -0.323970 -0.318890 -0.321930 -0.325340 -0.325260 -0.325210 -0.324820 -0.318000 -0.305670 -0.295670 -0.288120 -0.282210 -0.287090 -0.299770 -0.302530 -0.295770 -0.291810 -0.289380 -0.284610 -0.277370 -0.267650 -0.262630 -0.263240 -0.260180 -0.257230 -0.261310 -0.264190 -0.262590 -0.262640 -0.262070 -0.255520 -0.244070 -0.232940 -0.228890 -0.232800 -0.238210 -0.240300 -0.236810 -0.228510 -0.222630 -0.222840 -0.223790 -0.223170 -0.223320 -0.222010 -0.215970 -0.208140 -0.202980 -0.200030 -0.196290 -0.191850 -0.188750 -0.185240 -0.178340 -0.170840 -0.167060 -0.166900 -0.166110 -0.158470 -0.147060 -0.144690 -0.149480 -0.146220 -0.135870 -0.128690 -0.120280 -0.106560 -0.098971 -0.100400 -0.097016 -0.088720 -0.087003 -0.087138 -0.082899 -0.079540 -0.073960 -0.061956 -0.052015 -0.046358 -0.038579 -0.030203 -0.023114 -0.011467  0.003099  0.009104  0.008164  0.015073  0.030281  0.041300  0.045853  0.049234  0.053002  0.058756  0.068623  0.080138  0.091102  0.103000  0.114340  0.124390  0.138020  0.153530  0.163380  0.168280  0.172090  0.175300  0.180210  0.188210  0.198040  0.212130  0.231970  0.247960  0.252130  0.256080  0.270350  0.283770  0.290400  0.302710  0.319390  0.325350  0.327920  0.344100  0.363440  0.372000  0.379350  0.387260  0.387080  0.389690  0.403040  0.415740  0.424510  0.432280  0.438420  0.448970  0.465340  0.480720  0.494570  0.505770  0.512830  0.520980  0.528760  0.531760  0.537720  0.550760  0.563000  0.571570  0.579570  0.586760  0.594450  0.607420  0.623720  0.632790  0.631240  0.631230  0.641580  0.653320  0.657670  0.659640  0.664740  0.674050  0.687690  0.698760  0.702450  0.705470  0.710200  0.715800  0.725870  0.732950  0.731540  0.734900  0.744200  0.747800  0.751510  0.761210  0.769050  0.773690  0.778290  0.783890  0.794500  0.806630  0.811200  0.810830  0.812270  0.815200  0.818520  0.823650  0.833210  0.845780  0.851830  0.847790  0.842820  0.840420  0.838610  0.842320  0.852160  0.862730  0.873160  0.880240  0.882880  0.887600  0.891400  0.890080  0.892490  0.897070  0.893210  0.888380  0.891650  0.895460  0.896770  0.903290  0.914620  0.921280  0.919220  0.914110  0.912670  0.913970  0.913520  0.912450  0.914130  0.917450  0.919480  0.919510  0.921640  0.929450  0.936990  0.940130  0.942990  0.941500  0.932580  0.929660  0.937490  0.945180  0.948520  0.947300  0.942480  0.941170  0.941930  0.937810  0.932830  0.930460  0.929410  0.932700  0.936480  0.932580  0.926540  0.924880  0.921480  0.912100  0.900730  0.892270  0.888240  0.884670  0.880200  0.877880  0.872630  0.860630  0.850580  0.844680  0.836720  0.830040  0.828730  0.828660  0.827130  0.821540  0.809770  0.799000  0.793960  0.786740  0.774470  0.765030  0.757950  0.745560  0.729200  0.713870  0.700740  0.691200  0.683740  0.675710  0.668910  0.661640  0.650670  0.639680  0.628690  0.613800  0.599460  0.588500  0.575170  0.559120  0.547550  0.542900  0.538610  0.527240  0.511030  0.497600  0.486540  0.474710  0.463970  0.452810  0.440140  0.430360  0.419410  0.402850  0.390730  0.384090  0.370890  0.355570  0.348740  0.343860  0.332720  0.317370  0.303470  0.294880  0.287710  0.276930  0.265320  0.254140  0.243930  0.239630  0.236260  0.227690  0.222530  0.219410  0.208320  0.198750  0.195990  0.189570  0.181540  0.174440  0.162740  0.153120  0.146260  0.131810  0.118350  0.116140  0.112320  0.100360  0.093534  0.094788  0.090656  0.078492  0.066742  0.055024  0.043662  0.040792  0.042762  0.038158  0.029177  0.024461  0.025221  0.028914  0.031514  0.026862  0.015384  0.005206 -0.001788 -0.009572 -0.016272 -0.019428 -0.020396 -0.019013 -0.019136 -0.028172 -0.041810 -0.047928 -0.044796 -0.042065 -0.047091 -0.055622 -0.061589 -0.069580 -0.079601 -0.081764 -0.081521 -0.089026 -0.094523 -0.093274 -0.093459 -0.092053 -0.087720 -0.087097 -0.088014 -0.092549 -0.104860 -0.111290 -0.104990 -0.099158 -0.099815 -0.104160 -0.111720 -0.118450 -0.121360 -0.124660 -0.128860 -0.127350 -0.119570 -0.114350 -0.115710 -0.117130 -0.113960 -0.110200 -0.109710 -0.110600 -0.110160 -0.109610 -0.111630 -0.115750 -0.117240 -0.113740 -0.110150 -0.110130 -0.109430 -0.104490 -0.097056 -0.090011 -0.087507 -0.091076 -0.094564 -0.093125 -0.089167 -0.086769 -0.087535 -0.088369 -0.086460 -0.087624 -0.095340 -0.101140 -0.098636 -0.088795 -0.073098 -0.058866 -0.056491 -0.063965 -0.070714 -0.071757 -0.068712 -0.064689 -0.060988 -0.057374 -0.053287 -0.046362 -0.037930 -0.036853 -0.044753 -0.049939 -0.047699 -0.047063 -0.048514 -0.041360 -0.028723 -0.024123 -0.025279 -0.021930 -0.018055 -0.019904 -0.020892 -0.018082 -0.020137 -0.025289 -0.023221 -0.019522 -0.020337 -0.016267 -0.007524 -0.003432 -0.002021 -0.003059 -0.007799 -0.006077  0.004323  0.012638  0.015219  0.013937  0.009874  0.007406  0.009001  0.012459  0.018208  0.026783  0.031678  0.027255  0.018859  0.014559  0.014002  0.014464  0.017870  0.023436  0.025582  0.024888  0.029144  0.038339  0.042694  0.041422  0.043104  0.044044  0.036824  0.030761  0.031235  0.028916  0.025358  0.029088  0.034794  0.037300  0.041040  0.044416  0.041531  0.037150  0.037386  0.036163  0.031675  0.032822  0.037634  0.037637  0.034402  0.030215  0.026188  0.024040  0.017944  0.009350  0.011790  0.021800  0.021950  0.013015  0.008099  0.008539  0.006942  0.001447 -0.002607 -0.000963  0.004246  0.008247  0.007137  0.001502  0.001384  0.008539  0.006491 -0.005953 -0.012484 -0.014990 -0.019226 -0.019338 -0.020808 -0.025392 -0.020424 -0.012919 -0.017553 -0.026818 -0.032339 -0.036119 -0.037209 -0.036817 -0.040807 -0.048932 -0.054907 -0.054536 -0.047789 -0.041009 -0.045550 -0.059378 -0.065514 -0.064518 -0.070564 -0.077781 -0.076775 -0.075239 -0.076878 -0.076700 -0.071575 -0.061555 -0.058135 -0.071196 -0.085248 -0.083263 -0.075858 -0.078383 -0.086521 -0.091243 -0.094565 -0.098465 -0.099499 -0.098647 -0.098731 -0.100820 -0.107550 -0.115200 
Shapelet   6   0.103410  0.162260  0.234280  0.251040  0.258570  0.256370  0.266100  0.281310  0.283200  0.282470  0.285390  0.270140  0.238020  0.223970  0.237630  0.254190  0.259240  0.258370  0.257600  0.258200  0.258580  0.257550  0.257590  0.259280  0.257990  0.255350  0.261640  0.277000  0.287110  0.282330  0.268530  0.254280  0.240000  0.228510  0.232590  0.256820  0.288290  0.316880  0.341590  0.353520  0.344770  0.327310  0.313330  0.298970  0.284640  0.274280  0.256370  0.225940  0.205480  0.207750  0.214080  0.210460  0.206820  0.213810  0.228790  0.239830  0.235220  0.218980  0.209310  0.209970  0.209660  0.209660  0.220860  0.236330  0.238420  0.230390  0.231890  0.246800  0.258790  0.259580  0.257610  0.258080  0.257360  0.258270  0.269490  0.288630  0.303130  0.307860  0.305950  0.295740  0.276120  0.260180  0.258850  0.258840  0.245950  0.232450  0.232010  0.235780  0.234650  0.233610  0.234280  0.233400  0.237300  0.253090  0.272530  0.282180  0.282320  0.282110  0.282400  0.280600  0.281920  0.285390  0.278190  0.262480  0.255470  0.257940  0.258310  0.258470  0.259920  0.252390  0.236480  0.222240  0.207670  0.191600  0.185290  0.186970  0.179540  0.160770  0.143920  0.138750  0.154010  0.192760  0.235400  0.256590  0.257120  0.256190  0.265410  0.281390  0.288740  0.277460  0.261830  0.254290  0.237380  0.203690  0.185980  0.200690  0.216180  0.211980  0.206940  0.211140  0.212410  0.208920  0.209550  0.212870  0.209940  0.196890  0.181640  0.181590  0.204390  0.234200  0.252700  0.259290  0.259330  0.255860  0.257530  0.270560  0.284440  0.285810  0.274850  0.259940  0.252080  0.260690  0.277650  0.280380  0.262830  0.242780  0.233900  0.233380  0.234940  0.235190  0.228110  0.209780  0.190620  0.188250  0.203640  0.221950  0.233980  0.237490  0.232480  0.230620  0.243150  0.257330  0.259000  0.258500  0.260730  0.251280  0.235600  0.239120  0.261270  0.278320  0.283050  0.282790  0.275280  0.256730  0.238790  0.234050  0.235360  0.227450  0.210530  0.195270  0.182630  0.167960  0.157730  0.161950  0.176310  0.189470  0.202690  0.220610  0.233580  0.233780  0.235470  0.249820  0.262870  0.260410  0.246900  0.233230  0.229800  0.238420  0.238770  0.214550  0.186050  0.180030  0.191160  0.205020  0.221610  0.234130  0.226250  0.205140  0.202090  0.228200  0.256280  0.262570  0.257040  0.256010  0.262200  0.278070  0.299380  0.305040  0.290140  0.278920  0.281110  0.281900  0.282290  0.295790  0.308010  0.291940  0.261800  0.258030  0.277600  0.278940  0.261110  0.262790  0.281090  0.277310  0.251800  0.235110  0.237950  0.254980  0.275270  0.281760  0.278730  0.289080  0.304780  0.298680  0.280550  0.277620  0.284140  0.282730  0.285030  0.306540  0.328550  0.325610  0.309140  0.304790  0.305940  0.293930  0.279000  0.279000  0.284840  0.282530  0.279010  0.283080  0.285270  0.275310  0.260190  0.253550  0.259460  0.273400  0.287050  0.285860  0.262510  0.232650  0.215010  0.208930  0.208750  0.217620  0.234170  0.250120  0.260280  0.260480  0.254040  0.257160  0.273690  0.281800  0.267870  0.247460  0.235370  0.230250  0.236660  0.263330  0.296700  0.307500  0.292580  0.281900  0.294280  0.311050  0.309020  0.299040  0.306230  0.324970  0.327580  0.311290  0.300540  0.305400  0.310860  0.301150  0.272720  0.240480  0.232830  0.257900  0.285800  0.287650  0.276860  0.279950  0.288300  0.280070  0.272860  0.295430  0.325830  0.330680  0.330080  0.346550  0.352040  0.334250  0.330720  0.353240  0.363830  0.346870  0.331510  0.327520  0.308440  0.265180  0.227780  0.214410  0.201810  0.169000  0.125070  0.085443  0.055964  0.032921  0.003867 -0.032666 -0.052043 -0.040447 -0.020313 -0.007710  0.011445  0.044596  0.068250  0.063109  0.046970  0.043065  0.043890  0.033096  0.015476  0.001708 -0.011829 -0.026258 -0.038720 -0.055112 -0.071389 -0.075408 -0.074381 -0.085463 -0.100490 -0.101160 -0.100030 -0.116620 -0.140410 -0.146520 -0.132230 -0.119780 -0.121020 -0.125520 -0.123120 -0.119420 -0.126210 -0.141300 -0.151700 -0.147740 -0.133980 -0.119060 -0.093020 -0.052745 -0.028221 -0.037593 -0.052790 -0.051520 -0.055330 -0.072219 -0.079829 -0.074599 -0.063366 -0.040085 -0.010327  0.007711  0.020304  0.038147  0.044096  0.042209  0.050227  0.044823  0.004218 -0.034583 -0.034758 -0.017067 -0.004729 -0.004765 -0.037034 -0.095798 -0.145430 -0.185680 -0.241680 -0.294960 -0.313410 -0.313070 -0.314100 -0.306440 -0.288760 -0.274230 -0.258980 -0.229780 -0.194620 -0.170880 -0.157440 -0.140510 -0.112130 -0.078633 -0.052936 -0.044747 -0.054163 -0.058007 -0.036524 -0.006886  0.002869 -0.005239 -0.007948  0.004453  0.035198  0.074563  0.091515  0.078736  0.062311  0.050013  0.019062 -0.028904 -0.063562 -0.079351 -0.092596 -0.114240 -0.145450 -0.170530 -0.165890 -0.135620 -0.110300 -0.099884 -0.096737 -0.099786 -0.090854 -0.054647 -0.027967 -0.041117 -0.050476 -0.021573  0.002973 -0.002158 -0.000142  0.021233  0.037669  0.047985  0.062737  0.076434  0.091129  0.117490  0.147980  0.175830  0.202350  0.211160  0.188200  0.157300  0.153870  0.177910  0.206530  0.232960  0.263420  0.294260  0.311380  0.308370  0.293910  0.281090  0.278000  0.286700  0.301890  0.310590  0.305550  0.300860  0.309340  0.310930  0.291340  0.281510  0.305700  0.335780  0.348150  0.365350  0.397440  0.420110  0.424980  0.424860  0.424120  0.423990  0.433300  0.450920  0.465770  0.477420  0.491540  0.514220  0.545800  0.567730  0.563240  0.547380  0.538340  0.520500  0.486840  0.471780  0.488400  0.501930  0.496750  0.501600  0.525580  0.530820  0.501070  0.474040  0.472840  0.470780  0.454140  0.447940  0.450030  0.436180  0.424800  0.438010  0.451970  0.449510  0.449420  0.448440  0.423870  0.391120  0.376970  0.381730  0.399880  0.428440  0.454130  0.467710  0.479930  0.494950  0.500500  0.494890  0.492500  0.502940  0.518080  0.523760  0.519380  0.517080  0.523170  0.523260  0.502470  0.470840  0.450930  0.449450  0.450890  0.436180  0.401540  0.365660  0.351610  0.353110  0.351740  0.352760  0.365510  0.379940  0.392480  0.412440  0.425180  0.412820  0.400580  0.413610  0.431170  0.427830  0.412700  0.399930  0.386380  0.371010  0.357180  0.343300  0.329320  0.324030  0.334350  0.349810  0.355620  0.353530  0.352050  0.354600  0.367380  0.391330  0.401970  0.379980  0.347990  0.332020  0.328250  0.328870  0.332670  0.328140  0.312200  0.304100  0.306160  0.298120  0.281110  0.276040  0.286820  0.301210  0.314940  0.329380  0.343260  0.357810  0.372590  0.381380  0.378060  0.364570  0.350970  0.349170  0.361260  0.375800  0.380530  0.376460  0.374660  0.382660  0.398440  0.402780  0.373160  0.317090  0.262240  0.222050  0.182170  0.138170  0.106890  0.085124  0.058493  0.017807 -0.025510 -0.069920 -0.145990 -0.256730 -0.386250 -0.512690 -0.634720 -0.768450 -0.916270 -1.096100 -1.297300 -1.510400 -1.749800 -2.010800 -2.291700 -2.572700 -2.861300 -3.165300 -3.470200 -3.784000 -4.078400 -4.355900 -4.645200 -4.950900 -5.260700 -5.539900 -5.811400 -6.080600 -6.319300 -6.526800 -6.708000 -6.888600 -7.074600 -7.246600 -7.382200 -7.460500 -7.490700 -7.471900 -7.402200 -7.308200 -7.184900 -6.987100 -6.685600 -6.298600 -5.879900 -5.427400 -4.934700 -4.440400 -3.969300 -3.506400 -2.998300 -2.453600 -1.872600 -1.202800 -0.434340  0.394910  1.194000  1.893600  2.448500  2.842800  3.121300  3.302600  3.393700  3.395600  3.330000  3.238400  3.135900  3.053400  3.013700  3.002900  2.976000  2.904000  2.798300  2.673700  2.545500  2.425800  2.316200  2.202600  2.089500  1.967300  1.812000 


; cmd = /home/grad00/soren885/capstone/ShapeletResearch/Execs/FastShapelet /home/grad00/soren885/capstone/Shapelet_Datasets/UCR_Master/CinC_ECG_torso_TRAIN 4 40 820 1 2 10 euclidean 0 0 10 ./replications/CinC_ECG_torso/CinC_ECG_torso_euclidean_unnormed_NOCID_REP21_tree.txt ./replications/CinC_ECG_torso/CinC_ECG_torso_euclidean_unnormed_NOCID_REP21_time.txt
; time =>  349.142  18.158  84.335   6.287 233.446 
; command = /home/grad00/soren885/capstone/ShapeletResearch/Execs/Classify /home/grad00/soren885/capstone/Shapelet_Datasets/UCR_Master/CinC_ECG_torso_TEST 4 1380 euclidean 0 0 ./replications/CinC_ECG_torso/CinC_ECG_torso_euclidean_unnormed_NOCID_REP21_tree.txt ./replications/CinC_ECG_torso/CinC_ECG_torso_euclidean_unnormed_NOCID_REP21_acc.txt
; accuracy= 67.754   Correct:935 , Wrong: 445


;   == Confusion Matrix ==
;   real |   3    2    4    1 
;   -----+------------------------
;   p  3 | 188   58   10   51 
;   p  2 | 116  273    7   32 
;   p  4 |   0    1  259   52 
;   p  1 |  39   10   69  215 

