;Shapelet Tree 

;random seed:1503512445, rand()=680034389, rand()=1717763587
;command = /home/grad00/soren885/capstone/ShapeletResearch/Execs/FastShapelet /home/grad00/soren885/capstone/Shapelet_Datasets/UCR_Master/CinC_ECG_torso_TRAIN 4 40 820 1 2 10 correlation 1 0 10 ./replications/CinC_ECG_torso/CinC_ECG_torso_correlation_unnormed_CID_REP09_tree.txt ./replications/CinC_ECG_torso/CinC_ECG_torso_correlation_unnormed_CID_REP09_time.txt 

;Local Class:   0  1  2  3 
;Real  Class:   1  3  4  2 

;Node ID class   obj  pos  len  dist_th 
TreeSize: 10 
NonL  1    --     12   34  755   0.8374 ==>   2  12   0  13  /   3   0  10   0 
NonL  2    --      0  533   61   0.0347 ==>   2  12   0   0  /   0   0   0  13 
NonL  3    --      2  761  315   0.3349 ==>   0   0  10   0  /   3   0   0   0 
NonL  4    --      9  106  257   1.5136 ==>   0  12   0   0  /   2   0   0   0 
Leaf  5     2    
Leaf  6     4    
Leaf  7     1    
Leaf  8     3    
Leaf  9     1    

;Shapelet id   <data>
Shapelet   1  -0.176700 -0.182710 -0.198990 -0.197670 -0.196950 -0.217340 -0.219800 -0.207620 -0.235890 -0.243130 -0.127440  0.079781  0.073449  0.056042  0.057545  0.060449  0.059443  0.070271  0.081136  0.079584  0.084446  0.098635  0.096396  0.076060  0.061634  0.059754  0.059916  0.059132  0.059847  0.060276  0.059150  0.059180  0.061287  0.059531  0.048548  0.036203  0.036166  0.048661  0.059537  0.060932  0.059475  0.059762  0.059008  0.059308  0.067948  0.082865  0.095213  0.104750  0.117270  0.132140  0.140100  0.131010  0.110540  0.099720  0.102880  0.099028  0.084361  0.080093  0.082316  0.065787  0.039729  0.033561  0.042212  0.042199  0.036153  0.039068  0.050828  0.061595  0.062430  0.056063  0.058179  0.072592  0.079493  0.067643  0.055073  0.057643  0.069062  0.080997  0.093349  0.102870  0.102170  0.090738  0.079603  0.085348  0.108260  0.121590  0.110170  0.099772  0.110680  0.120490  0.108170  0.089661  0.080469  0.071375  0.056550  0.044025  0.034716  0.021944  0.013138  0.021731  0.036755  0.038612  0.037395  0.054868  0.081262  0.095189  0.103210  0.116160  0.123680  0.119870  0.117170  0.121290  0.121720  0.116600  0.119160  0.132050  0.140990  0.140490  0.140160  0.140410  0.131940  0.117390  0.105350  0.094026  0.081690  0.076937  0.079931  0.072483  0.049529  0.037437  0.055302  0.080309  0.084460  0.077718  0.078299  0.081286  0.079861  0.078741  0.080177  0.080694  0.075972  0.061574  0.049633  0.065770  0.104570  0.127680  0.121930  0.114490  0.121070  0.124580  0.113510  0.101160  0.099417  0.099561  0.089603  0.073802  0.061959  0.056990  0.059722  0.070828  0.082530  0.082664  0.074968  0.078696  0.100980  0.123880  0.125840  0.110330  0.099874  0.106610  0.122540  0.135550  0.142150  0.141180  0.131880  0.118470  0.105610  0.097143  0.097995  0.103970  0.099432  0.084308  0.081017  0.094853  0.104170  0.100060  0.096941  0.101050  0.101670  0.096895  0.098871  0.110810  0.121140  0.121490  0.118470  0.119390  0.121020  0.119520  0.118540  0.121170  0.121110  0.112490  0.098898  0.085964  0.077119  0.077222  0.088069  0.099786  0.101890  0.098945  0.099020  0.100580  0.099915  0.099057  0.100050  0.100230  0.099140  0.099581  0.100740  0.099356  0.097805  0.103970  0.117230  0.124890  0.118710  0.105970  0.095947  0.084180  0.067712  0.059759  0.068964  0.084961  0.096782  0.103340  0.100200  0.086559  0.079638  0.091565  0.110070  0.119450  0.120370  0.119670  0.119460  0.120180  0.120030  0.118900  0.120130  0.121100  0.118380  0.118710  0.123100  0.119280  0.113140  0.128610  0.155420  0.158030  0.139970  0.134020  0.142500  0.143130  0.132550  0.120680  0.109130  0.096771  0.084392  0.075978  0.078375  0.090745  0.100760  0.101110  0.098931  0.099516  0.100040  0.099760  0.099741  0.099428  0.099062  0.104840  0.120360  0.135550  0.140170  0.139380  0.141310  0.140070  0.135900  0.143280  0.157250  0.159380  0.159110  0.171890  0.179800  0.167370  0.155640  0.158790  0.162130  0.159550  0.159560  0.158030  0.144470  0.127270  0.119550  0.111380  0.091350  0.077978  0.093373  0.119730  0.125620  0.117360  0.117350  0.122680  0.120270  0.116440  0.121440  0.123700  0.111700  0.100080  0.106380  0.122310  0.134080  0.145860  0.158190  0.161810  0.159750  0.159790  0.159350  0.159060  0.162570  0.159650  0.146060  0.138980  0.140690  0.133600  0.120240  0.117040  0.120520  0.120190  0.119890  0.120040  0.117300  0.121640  0.134740  0.141830  0.140140  0.139920  0.139530  0.137240  0.144610  0.157810  0.161290  0.159920  0.161200  0.157770  0.156350  0.174440  0.199850  0.213350  0.222830  0.225150  0.204690  0.180890  0.178570  0.178330  0.164020  0.161510  0.177720  0.184770  0.178900  0.177940  0.180890  0.179920  0.184230  0.202140  0.226530  0.247540  0.258820  0.260350  0.260120  0.261250  0.257740  0.245270  0.230740  0.220390  0.210450  0.194770  0.170530  0.147490  0.139720  0.142230  0.138310  0.134400  0.150940  0.176550  0.188970  0.202820  0.237210  0.275290  0.296820  0.309290  0.320720  0.323230  0.318460  0.319110  0.319670  0.300440  0.263630  0.232130  0.210260  0.179980  0.142560  0.115590  0.094258  0.060127  0.016044 -0.016796 -0.038068 -0.065850 -0.101770 -0.136110 -0.171420 -0.217190 -0.265140 -0.309620 -0.365020 -0.426180 -0.466880 -0.481430 -0.490440 -0.507520 -0.530370 -0.565610 -0.618820 -0.679510 -0.735340 -0.782390 -0.825770 -0.859190 -0.869580 -0.857890 -0.833140 -0.810840 -0.801370 -0.807350 -0.824040 -0.845110 -0.876190 -0.913010 -0.942750 -0.963050 -0.982630 -1.015600 -1.063800 -1.122100 -1.182000 -1.226000 -1.244200 -1.232400 -1.201400 -1.165200 -1.129100 -1.092900 -1.046400 -0.991720 -0.946850 -0.919230 -0.897770 -0.871770 -0.856200 -0.859710 -0.865430 -0.860690 -0.847520 -0.837260 -0.826140 -0.805260 -0.781160 -0.764460 -0.759980 -0.749560 -0.719570 -0.682960 -0.660920 -0.663460 -0.675970 -0.687170 -0.699880 -0.713440 -0.722240 -0.722330 -0.718800 -0.705840 -0.674030 -0.636930 -0.610280 -0.595140 -0.583930 -0.572390 -0.560630 -0.555160 -0.566970 -0.580660 -0.575030 -0.561480 -0.552170 -0.532980 -0.495800 -0.462130 -0.442560 -0.421160 -0.394730 -0.370910 -0.348320 -0.324280 -0.306150 -0.300200 -0.292050 -0.266030 -0.228900 -0.192220 -0.157410 -0.129510 -0.115610 -0.092651 -0.042385  0.000273  0.012189  0.028243  0.066939  0.094473  0.099647  0.109050  0.122760  0.123170  0.114500  0.101800  0.079945  0.055635  0.042294  0.038439  0.038891  0.046922  0.061700  0.074699  0.083261  0.095200  0.116640  0.141140  0.156920  0.158640  0.145800  0.127660  0.119860  0.121240  0.118040  0.115640  0.132800  0.158420  0.165530  0.158190  0.157380  0.162040  0.160370  0.161980  0.185160  0.222700  0.250620  0.259620  0.259980  0.260070  0.259600  0.260540  0.260940  0.254040  0.239700  0.225530  0.218250  0.218030  0.225590  0.239360  0.252500  0.262420  0.273600  0.288890  0.299610  0.299810  0.301000  0.312180  0.327390  0.338430  0.348270  0.362050  0.375040  0.382320  0.381600  0.373100  0.359400  0.345360  0.338540  0.339160  0.341210  0.340270  0.338020  0.342150  0.354090  0.369040  0.379770  0.381730  0.379600  0.379060  0.381110  0.380650  0.377540  0.381510  0.393660  0.403350  0.401540  0.396680  0.400930  0.404480  0.394410  0.381180  0.384620  0.400680  0.412910  0.424180  0.436910  0.442480  0.440530  0.439190  0.440420  0.440060  0.440760  0.440800  0.432080  0.417200  0.403960  0.397760  0.399070  0.408120  0.421740  0.425250  0.413620  0.401350  0.399950  0.400120  0.396510  0.404550  0.418060  0.419020  0.420240  0.439710  0.467960  0.490560  0.516350  0.539400  0.542690  0.540820  0.552180  0.568730  0.579110  0.594450  0.627080  0.674170  0.724610  0.771590  0.816920  0.865700  0.909580  0.923350  0.909350  0.883150  0.839960  0.755360  0.606460  0.416430  0.206720 -0.009432 -0.228770 -0.461570 -0.695590 -0.941970 -1.208500 -1.495000 -1.803600 -2.136300 -2.521100 -2.928600 -3.319900 -3.691400 -4.038800 -4.360200 -4.639100 -4.899200 -5.164100 -5.438400 -5.741700 -6.051500 -6.339200 -6.588900 -6.791400 -6.953200 -7.060100 -7.124100 -7.152300 -7.120900 -7.021100 -6.845800 -6.628900 -6.404000 -6.193500 -6.024400 -5.861300 -5.679400 -5.502600 -5.372300 -5.304400 -5.275700 -5.308300 -5.401200 -5.475500 -5.468800 -5.364000 -5.215600 -5.053000 -4.856900 -4.603500 -4.257500 -3.825200 -3.330000 -2.798600 -2.251500 -1.668700 -1.066200 -0.510170 -0.092059  0.135180  0.224820  0.267220  0.346800  0.493710  0.698520  0.965390  1.280000  1.605300  1.869200  2.030100  2.111100  2.143200  2.150000  2.138900  2.114600  2.085600  2.064400  2.052800  2.039000  2.015000 
Shapelet   2  -1.007600 -1.064500 -1.177000 -1.281700 -1.326900 -1.367200 -1.412500 -1.432600 -1.466600 -1.513900 -1.516300 -1.507100 -1.551700 -1.605800 -1.594900 -1.534900 -1.468400 -1.389100 -1.294100 -1.203300 -1.115400 -1.024100 -0.932890 -0.851640 -0.793470 -0.731980 -0.620040 -0.475140 -0.357160 -0.289400 -0.257670 -0.237850 -0.193460 -0.112300 -0.061111 -0.061077 -0.009765  0.089168  0.125020  0.154110  0.249740  0.309790  0.313440  0.357560  0.419870  0.453040  0.516760  0.623420  0.690770  0.709350  0.745040  0.791990  0.813160  0.832550  0.854590  0.853670  0.848070  0.852320  0.852140  0.849010  0.853570 
Shapelet   3   0.447860  0.445710  0.436970  0.430530  0.428430  0.424160  0.421230  0.425300  0.429470  0.428850  0.430420  0.435460  0.436280  0.434100  0.435690  0.439450  0.442690  0.447920  0.455780  0.462260  0.465790  0.469480  0.472520  0.471020  0.469770  0.476180  0.484330  0.484300  0.481250  0.484460  0.488870  0.488810  0.489660  0.489980  0.484970  0.483680  0.488670  0.489950  0.488820  0.489380  0.488870  0.489520  0.489700  0.484820  0.483470  0.489360  0.490860  0.487230  0.489650  0.494910  0.492760  0.489520  0.493060  0.496040  0.495350  0.495100  0.494500  0.495830  0.500270  0.499780  0.494400  0.494090  0.496870  0.494250  0.493800  0.500430  0.499700  0.494830  0.501850  0.507290  0.502030  0.500940  0.499240  0.490180  0.490040  0.497640  0.495970  0.489660  0.489570  0.489640  0.484810  0.482440  0.483600  0.483090  0.483230  0.483460  0.482490  0.484250  0.482940  0.477560  0.478180  0.476360  0.466810  0.466370  0.471960  0.471300  0.473320  0.477880  0.477420  0.477540  0.476140  0.471580  0.473630  0.477910  0.477400  0.479550  0.484920  0.488990  0.493190  0.495330  0.495410  0.498530  0.502030  0.501580  0.503200  0.511660  0.519660  0.523340  0.526300  0.525180  0.522990  0.530330  0.537640  0.536520  0.540920  0.550420  0.553920  0.559320  0.568780  0.572590  0.574780  0.580470  0.584460  0.587000  0.593060  0.601490  0.609390  0.617620  0.626050  0.631460  0.632720  0.632970  0.638230  0.649550  0.657070  0.659040  0.667840  0.681190  0.686060  0.687370  0.693490  0.701050  0.708780  0.717790  0.725560  0.732800  0.742160  0.750420  0.754850  0.759890  0.767790  0.775910  0.784530  0.792650  0.799240  0.809660  0.822250  0.830430  0.839630  0.852480  0.861710  0.868690  0.877450  0.885380  0.893140  0.901950  0.909580  0.917470  0.926450  0.931200  0.932340  0.938900  0.950630  0.960050  0.969230  0.981290  0.989040  0.993110  1.003800  1.017500  1.022600  1.024900  1.035600  1.048000  1.055500  1.063800  1.071200  1.074600  1.081100  1.090000  1.097800  1.109500  1.120000  1.123400  1.131100  1.147400  1.159400  1.162900  1.167900  1.177500  1.185600  1.192100  1.201900  1.213600  1.223300  1.232500  1.243400  1.254500  1.262600  1.269600  1.276700  1.280300  1.286100  1.300300  1.310600  1.313000  1.322500  1.335400  1.338700  1.342800  1.353800  1.357700  1.356900  1.367100  1.380000  1.383600  1.389800  1.398900  1.398800  1.400700  1.410700  1.415500  1.418100  1.423600  1.426100  1.432000  1.441800  1.445500  1.448200  1.454200  1.457200  1.460600  1.466200  1.469300  1.472700  1.478200  1.481800  1.483200  1.483400  1.482700  1.482900  1.483200  1.482600  1.485100  1.490000  1.490000  1.485200  1.482500  1.483000  1.483500  1.481800  1.478000  1.475700  1.477400  1.477900  1.473700  1.468000  1.460500  1.450600  1.444300  1.442100  1.437600  1.431000  1.423900  1.414700  1.406100  1.399500  1.391100  1.379800  1.368600  1.356100  1.342100  1.332600  1.325000  1.310500  1.294800  1.283000  1.268100  1.251600  1.235800  1.217800  1.204200  1.192800  1.175600  1.161600  1.150500  1.130500  1.110900  1.096200  1.075700  1.056000  1.041500  1.024400  1.008700  0.993070 
Shapelet   4  -0.078301 -0.077301 -0.068377 -0.066909 -0.065907 -0.057168 -0.055077 -0.062674 -0.066657 -0.068443 -0.074006 -0.074701 -0.064721 -0.052866 -0.045290 -0.037840 -0.030117 -0.026240 -0.025269 -0.026304 -0.030374 -0.035102 -0.038040 -0.038127 -0.034790 -0.030754 -0.027070 -0.020397 -0.012154 -0.008300 -0.008478 -0.007892 -0.007697 -0.011116 -0.014710 -0.014448 -0.013170 -0.014867 -0.018945 -0.023091 -0.026905 -0.030911 -0.033022 -0.030596 -0.026470 -0.023313 -0.018228 -0.014077 -0.016538 -0.021198 -0.024908 -0.029559 -0.032309 -0.036180 -0.043166 -0.041798 -0.037113 -0.044283 -0.049198 -0.039578 -0.031609 -0.032571 -0.036591 -0.042083 -0.042716 -0.037957 -0.039069 -0.045604 -0.048985 -0.051431 -0.057828 -0.065823 -0.071051 -0.073692 -0.077793 -0.083166 -0.084130 -0.079418 -0.074376 -0.072473 -0.072656 -0.072948 -0.072643 -0.072598 -0.075035 -0.081536 -0.089509 -0.094788 -0.096670 -0.096310 -0.095799 -0.096663 -0.096323 -0.097203 -0.107210 -0.119040 -0.120540 -0.120910 -0.130390 -0.138040 -0.135380 -0.131470 -0.134290 -0.138880 -0.137690 -0.132580 -0.132730 -0.142260 -0.152960 -0.154220 -0.149330 -0.147940 -0.150460 -0.154630 -0.159240 -0.161820 -0.166300 -0.172450 -0.170580 -0.166650 -0.170920 -0.171120 -0.161240 -0.154950 -0.156020 -0.160590 -0.165880 -0.166130 -0.166540 -0.174290 -0.180740 -0.184180 -0.191890 -0.198670 -0.201860 -0.206480 -0.207040 -0.201970 -0.203490 -0.212090 -0.213700 -0.205730 -0.200230 -0.201930 -0.200320 -0.190710 -0.184290 -0.184730 -0.182350 -0.178410 -0.181510 -0.186030 -0.184230 -0.182750 -0.186950 -0.190200 -0.189830 -0.191690 -0.196200 -0.200200 -0.203480 -0.201690 -0.193240 -0.189510 -0.196510 -0.205410 -0.209080 -0.207630 -0.203660 -0.199930 -0.195770 -0.191290 -0.189710 -0.190240 -0.193100 -0.201150 -0.208050 -0.208240 -0.207840 -0.207660 -0.203830 -0.199600 -0.195710 -0.194130 -0.201160 -0.208000 -0.204510 -0.199070 -0.195650 -0.191060 -0.191190 -0.196620 -0.200650 -0.204220 -0.208180 -0.211730 -0.217240 -0.219280 -0.211670 -0.203150 -0.202080 -0.202760 -0.199250 -0.195920 -0.199260 -0.206230 -0.207480 -0.203130 -0.201240 -0.202000 -0.201940 -0.202110 -0.201770 -0.201240 -0.204480 -0.208100 -0.208000 -0.207830 -0.207650 -0.207130 -0.210460 -0.213970 -0.213900 -0.212620 -0.206150 -0.197010 -0.198950 -0.209740 -0.217690 -0.223150 -0.225270 -0.220900 -0.219530 -0.227170 -0.231940 -0.227610 -0.225740 -0.230350 -0.230220 -0.224280 -0.223840 -0.230780 -0.238830 -0.246810 -0.251800 -0.247030 -0.238260 -0.238230 -0.244350 -0.248120 -0.251550 -0.255430 -0.255310 -0.253700 -0.255520 -0.259550 -0.263690 


; cmd = /home/grad00/soren885/capstone/ShapeletResearch/Execs/FastShapelet /home/grad00/soren885/capstone/Shapelet_Datasets/UCR_Master/CinC_ECG_torso_TRAIN 4 40 820 1 2 10 correlation 1 0 10 ./replications/CinC_ECG_torso/CinC_ECG_torso_correlation_unnormed_CID_REP09_tree.txt ./replications/CinC_ECG_torso/CinC_ECG_torso_correlation_unnormed_CID_REP09_time.txt
; time =>  1805.813  13.654  59.026   5.082 1721.969 
; command = /home/grad00/soren885/capstone/ShapeletResearch/Execs/Classify /home/grad00/soren885/capstone/Shapelet_Datasets/UCR_Master/CinC_ECG_torso_TEST 4 1380 correlation 1 0 ./replications/CinC_ECG_torso/CinC_ECG_torso_correlation_unnormed_CID_REP09_tree.txt ./replications/CinC_ECG_torso/CinC_ECG_torso_correlation_unnormed_CID_REP09_acc.txt
; accuracy= 75.725   Correct:1045 , Wrong: 335


;   == Confusion Matrix ==
;   real |   3    2    4    1 
;   -----+------------------------
;   p  3 | 249  101   12    8 
;   p  2 |  80  196    0    2 
;   p  4 |   8   44  328   68 
;   p  1 |   6    1    5  272 

