;Shapelet Tree 

;random seed:1508718420, rand()=704292164, rand()=207634567
;command = /home/grad00/soren885/capstone/ShapeletResearch/Execs/FastShapelet /home/grad00/soren885/capstone/Shapelet_Datasets/UCR_Master/CinC_ECG_torso_TRAIN 4 40 820 1 2 10 euclidean 0 0 10 ./replications/CinC_ECG_torso/CinC_ECG_torso_euclidean_unnormed_NOCID_REP17_tree.txt ./replications/CinC_ECG_torso/CinC_ECG_torso_euclidean_unnormed_NOCID_REP17_time.txt 

;Local Class:   0  1  2  3 
;Real  Class:   1  3  4  2 

;Node ID class   obj  pos  len  dist_th 
TreeSize: 14 
NonL  1    --      9   55  711  37.5916 ==>   0  12   0  12  /   5   0  10   1 
NonL  2    --      4  1147  419   4.7483 ==>   0   0   0  10  /   0  12   0   2 
NonL  3    --     15  1016  619  11.0866 ==>   5   0   0   1  /   0   0  10   0 
Leaf  4     2    
NonL  5    --      0  801   37  16.4979 ==>   0  12   0   0  /   0   0   0   2 
NonL  6    --      2    0  749  19.4457 ==>   0   0   0   1  /   5   0   0   0 
Leaf  7     4    
Leaf 10     3    
Leaf 11     2    
Leaf 12     2    
Leaf 13     1    

;Shapelet id   <data>
Shapelet   1  -0.124600 -0.124190 -0.121950 -0.116400 -0.108660 -0.102600 -0.099483 -0.096268 -0.092429 -0.094324 -0.103770 -0.111090 -0.110770 -0.111880 -0.119810 -0.125150 -0.124110 -0.126870 -0.136560 -0.143070 -0.142130 -0.141610 -0.145920 -0.149080 -0.146420 -0.142030 -0.141620 -0.144950 -0.148690 -0.150280 -0.148700 -0.147710 -0.151400 -0.155260 -0.153070 -0.148790 -0.148390 -0.149270 -0.148920 -0.150910 -0.155480 -0.157090 -0.153890 -0.149910 -0.148380 -0.149020 -0.151830 -0.156780 -0.160770 -0.162560 -0.167060 -0.175640 -0.180850 -0.180380 -0.181610 -0.186020 -0.187600 -0.186510 -0.186660 -0.185850 -0.181610 -0.177040 -0.173910 -0.170230 -0.166860 -0.167100 -0.169270 -0.167860 -0.163300 -0.161480 -0.162000 -0.159580 -0.155530 -0.154640 -0.155410 -0.155090 -0.156560 -0.160950 -0.164840 -0.168670 -0.175810 -0.183920 -0.186790 -0.185260 -0.187120 -0.194700 -0.201000 -0.200290 -0.195730 -0.192840 -0.192510 -0.193040 -0.193030 -0.192580 -0.192850 -0.193370 -0.192510 -0.192040 -0.194990 -0.198870 -0.199870 -0.198790 -0.195590 -0.189620 -0.186410 -0.189910 -0.192890 -0.189280 -0.185410 -0.186180 -0.187100 -0.186640 -0.189250 -0.195140 -0.198960 -0.197710 -0.192900 -0.188120 -0.186410 -0.186600 -0.186380 -0.186560 -0.187200 -0.186210 -0.185500 -0.189040 -0.192770 -0.190710 -0.185840 -0.182120 -0.178860 -0.179300 -0.186570 -0.193230 -0.193300 -0.193480 -0.197800 -0.201840 -0.205540 -0.210320 -0.211130 -0.206740 -0.204460 -0.205390 -0.202910 -0.197980 -0.197680 -0.201060 -0.199740 -0.192040 -0.185830 -0.185630 -0.187270 -0.186820 -0.186070 -0.186720 -0.186960 -0.186230 -0.186280 -0.188590 -0.193200 -0.197630 -0.199420 -0.199200 -0.199110 -0.199140 -0.198820 -0.199380 -0.199680 -0.197150 -0.193110 -0.191700 -0.193280 -0.193580 -0.191870 -0.192440 -0.196440 -0.199360 -0.199260 -0.199220 -0.199300 -0.198190 -0.199450 -0.203720 -0.205580 -0.205070 -0.207690 -0.211730 -0.212360 -0.211130 -0.207750 -0.199610 -0.192970 -0.195050 -0.200160 -0.200140 -0.198110 -0.198950 -0.199920 -0.198830 -0.198430 -0.199950 -0.199610 -0.195760 -0.192640 -0.192520 -0.192870 -0.192750 -0.193430 -0.192720 -0.188840 -0.185850 -0.186090 -0.188230 -0.192850 -0.198220 -0.198380 -0.193880 -0.193410 -0.198700 -0.203300 -0.206040 -0.209850 -0.212910 -0.212000 -0.210110 -0.212310 -0.216790 -0.217370 -0.212740 -0.209320 -0.212140 -0.217020 -0.217210 -0.212960 -0.208720 -0.205290 -0.201260 -0.198490 -0.198690 -0.199630 -0.199180 -0.198570 -0.199410 -0.199730 -0.197410 -0.193340 -0.189220 -0.186100 -0.185440 -0.188630 -0.192570 -0.191590 -0.185750 -0.180820 -0.181140 -0.185390 -0.189870 -0.193050 -0.196280 -0.200940 -0.204790 -0.205650 -0.205400 -0.205540 -0.205180 -0.204970 -0.206240 -0.205620 -0.201270 -0.199180 -0.202900 -0.207960 -0.211270 -0.213110 -0.210830 -0.203280 -0.196180 -0.193150 -0.192330 -0.192990 -0.193800 -0.191410 -0.187320 -0.186150 -0.186620 -0.186030 -0.187550 -0.191710 -0.193680 -0.192920 -0.192700 -0.192780 -0.192390 -0.194600 -0.198830 -0.198430 -0.191040 -0.182690 -0.179410 -0.180160 -0.180720 -0.180300 -0.180220 -0.180420 -0.180380 -0.180360 -0.180360 -0.180190 -0.180530 -0.180690 -0.178610 -0.174150 -0.169680 -0.167400 -0.167300 -0.169480 -0.173780 -0.176240 -0.172870 -0.168140 -0.169390 -0.173730 -0.174440 -0.174330 -0.178070 -0.181620 -0.180940 -0.177830 -0.173670 -0.169300 -0.167640 -0.168070 -0.166030 -0.161480 -0.157780 -0.153680 -0.146160 -0.136980 -0.130510 -0.126840 -0.122950 -0.119110 -0.116220 -0.112150 -0.107000 -0.105380 -0.106410 -0.102340 -0.094010 -0.090606 -0.093199 -0.094333 -0.091054 -0.087293 -0.084568 -0.079855 -0.070128 -0.056339 -0.045071 -0.039791 -0.036494 -0.032378 -0.029928 -0.030374 -0.029031 -0.024364 -0.020107 -0.017066 -0.013554 -0.009184 -0.005651 -0.002782  0.001993  0.009085  0.017365  0.024691  0.029760  0.032468  0.032685  0.031394  0.027367  0.023363  0.026271  0.034257  0.039649  0.042486  0.051061  0.063174  0.070882  0.078370  0.089560  0.101190  0.112250  0.125930  0.141630  0.156040  0.171650  0.186530  0.195630  0.202110  0.209710  0.215390  0.214540  0.211640  0.214110  0.221280  0.228450  0.231890  0.233840  0.238780  0.244130  0.244030  0.236460  0.225670  0.214680  0.203110  0.192310  0.178420  0.157860  0.135450  0.116180  0.097925  0.078329  0.063454  0.053308  0.041632  0.031569  0.027078  0.024663  0.020589  0.019647  0.026320  0.036783  0.048680  0.059990  0.068935  0.075890  0.080487  0.082525  0.082320  0.082542  0.082612  0.077793  0.067516  0.055819  0.046866  0.039887  0.032300  0.025282  0.020981  0.018817  0.015050  0.008068  0.000632 -0.006615 -0.014592 -0.022118 -0.027020 -0.030168 -0.034102 -0.037423 -0.040608 -0.047995 -0.060402 -0.073321 -0.081810 -0.085629 -0.087679 -0.091754 -0.100940 -0.113710 -0.125520 -0.133970 -0.141130 -0.149140 -0.155860 -0.159750 -0.163010 -0.166780 -0.170270 -0.174240 -0.180950 -0.189450 -0.196790 -0.203410 -0.211260 -0.219560 -0.225370 -0.228730 -0.233580 -0.241850 -0.250710 -0.256070 -0.256350 -0.254480 -0.254910 -0.258620 -0.261950 -0.262130 -0.261460 -0.261700 -0.260300 -0.255070 -0.249710 -0.249930 -0.254080 -0.257700 -0.261650 -0.266200 -0.268010 -0.267600 -0.268780 -0.268230 -0.263290 -0.262050 -0.266510 -0.267310 -0.262360 -0.260050 -0.261970 -0.262060 -0.261930 -0.266450 -0.272480 -0.274150 -0.273190 -0.275560 -0.279590 -0.282030 -0.286890 -0.295150 -0.300010 -0.299420 -0.299520 -0.299390 -0.292820 -0.285150 -0.284910 -0.288620 -0.287260 -0.281960 -0.280550 -0.281460 -0.277520 -0.269320 -0.263480 -0.261520 -0.260880 -0.262850 -0.266940 -0.270220 -0.274530 -0.281810 -0.288830 -0.292190 -0.294870 -0.299200 -0.300940 -0.297890 -0.293870 -0.291580 -0.287240 -0.281070 -0.281180 -0.285930 -0.285360 -0.280860 -0.280190 -0.280120 -0.275940 -0.273690 -0.274390 -0.271370 -0.267840 -0.270680 -0.275730 -0.275210 -0.271260 -0.267870 -0.261570 -0.252400 -0.248280 -0.252390 -0.255490 -0.251530 -0.249210 -0.253370 -0.256570 -0.255530 -0.256910 -0.262900 -0.267250 -0.267900 -0.267880 -0.268140 -0.267850 -0.267350 -0.268990 -0.273130 -0.276110 -0.273930 -0.266630 -0.259330 -0.255900 -0.254170 -0.249290 -0.241060 -0.235640 -0.235940 -0.236680 -0.231200 -0.220290 -0.209260 -0.198540 -0.186790 -0.180540 -0.183510 -0.186930 -0.186940 -0.188090 -0.192430 -0.195930 -0.199680 -0.203870 -0.193710 -0.170530 -0.141370 -0.097939 -0.031831  0.054217  0.138180  0.224910  0.327020  0.442420  0.573460  0.714270  0.875210  1.049300  1.225000  1.414600  1.624900  1.872400  2.138800  2.405100  2.666000  2.906200  3.139300  3.367500  3.604600  3.856500  4.111300  4.386800  4.671500  4.961400  5.252600  5.527800  5.782100  5.985000  6.155400  6.329700  6.504800  6.654100  6.744600  6.802000  6.841100  6.854300  6.856800  6.842300  6.801800  6.736600  6.661500  6.588400  6.509700  6.433300  6.357100  6.225400  6.002100  5.683800  5.309200  4.912300  4.485100  4.023900  3.489900  2.859200  2.133900  1.322800  0.432550 -0.548460 -1.545400 -2.434200 -3.115500 -3.546700 -3.770400 -3.846000 -3.851000 -3.833200 -3.800500 -3.758600 -3.700000 -3.630700 -3.546400 -3.447900 -3.348000 -3.247800 -3.142700 -3.030300 -2.915100 -2.800600 -2.692100 -2.580600 
Shapelet   2   0.131160  0.134760  0.140550  0.143400  0.145750  0.150640  0.157160  0.161950  0.164320  0.167160  0.169690  0.171780  0.174520  0.178850  0.184560  0.189420  0.194660  0.199910  0.203520  0.205610  0.205620  0.205110  0.204960  0.206780  0.209850  0.210270  0.209400  0.209210  0.210200  0.209990  0.208310  0.210620  0.215920  0.219970  0.222280  0.226020  0.232260  0.237230  0.242090  0.247460  0.251200  0.253060  0.252740  0.253030  0.255710  0.260960  0.266050  0.268140  0.271180  0.274080  0.273340  0.270440  0.268870  0.270680  0.273060  0.275990  0.278680  0.278700  0.278940  0.281100  0.284230  0.283750  0.279790  0.278970  0.281210  0.283880  0.286350  0.290850  0.296370  0.298570  0.301560  0.306990  0.311520  0.313450  0.314610  0.318810  0.321640  0.321180  0.321800  0.325690  0.331750  0.336510  0.342030  0.347340  0.348390  0.347760  0.347490  0.347190  0.344320  0.341460  0.343960  0.348930  0.353370  0.355730  0.357900  0.360980  0.361160  0.360310  0.360200  0.361130  0.361000  0.359190  0.361740  0.367070  0.371010  0.373470  0.375890  0.378210  0.377730  0.378530  0.381720  0.384150  0.387050  0.389510  0.391450  0.394030  0.399250  0.404160  0.402240  0.397990  0.395600  0.393890  0.391250  0.387620  0.386170  0.383720  0.379650  0.378080  0.379920  0.382520  0.380180  0.374920  0.370210  0.365010  0.360070  0.356360  0.357060  0.360250  0.360430  0.356030  0.347770  0.340950  0.336150  0.331290  0.326390  0.320640  0.316010  0.310940  0.305180  0.300730  0.297290  0.295520  0.293040  0.289190  0.283990  0.277600  0.274060  0.273630  0.274920  0.274910  0.271220  0.265090  0.256980  0.250080  0.245360  0.240840  0.235510  0.229520  0.225650  0.220810  0.212510  0.205710  0.202690  0.199790  0.192010  0.182630  0.175890  0.170240  0.165600  0.160670  0.154200  0.146420  0.138370  0.131000  0.123000  0.116180  0.111520  0.106900  0.101510  0.095671  0.092032  0.089802  0.086006  0.080388  0.074327  0.070728  0.068423  0.064752  0.059226  0.053132  0.049350  0.046884  0.044168  0.041813  0.039765  0.036292  0.028888  0.019692  0.012402  0.008292  0.006893  0.004888  0.000463 -0.004787 -0.008328 -0.010303 -0.012940 -0.015481 -0.017934 -0.020955 -0.023105 -0.024895 -0.029217 -0.037140 -0.044606 -0.048768 -0.051484 -0.053946 -0.056461 -0.059269 -0.061732 -0.062539 -0.062004 -0.063787 -0.069094 -0.074256 -0.075731 -0.074933 -0.076605 -0.081384 -0.086529 -0.091142 -0.096552 -0.102420 -0.106090 -0.108410 -0.111640 -0.113770 -0.112210 -0.108660 -0.106120 -0.103860 -0.101130 -0.100100 -0.101080 -0.101430 -0.100260 -0.100450 -0.103090 -0.105340 -0.107250 -0.111770 -0.117210 -0.118830 -0.118100 -0.120090 -0.123410 -0.123330 -0.120280 -0.118120 -0.118020 -0.118070 -0.117890 -0.119050 -0.122060 -0.125440 -0.126750 -0.124530 -0.120080 -0.117980 -0.120170 -0.122620 -0.122670 -0.122420 -0.122530 -0.121790 -0.122620 -0.127460 -0.132870 -0.135170 -0.135490 -0.135360 -0.135050 -0.135840 -0.138500 -0.141490 -0.143840 -0.146310 -0.148980 -0.151610 -0.153510 -0.152920 -0.150110 -0.148150 -0.148230 -0.148190 -0.148110 -0.150110 -0.152840 -0.153290 -0.152210 -0.152350 -0.153270 -0.152550 -0.150070 -0.147470 -0.145070 -0.141170 -0.135520 -0.131360 -0.131520 -0.134380 -0.136030 -0.135460 -0.134910 -0.135530 -0.135750 -0.134880 -0.135130 -0.136380 -0.134930 -0.131610 -0.131660 -0.134710 -0.137010 -0.139960 -0.143660 -0.143170 -0.140050 -0.140120 -0.139660 -0.134180 -0.130740 -0.133870 -0.136490 -0.135420 -0.136460 -0.140760 -0.143520 -0.144660 -0.147730 -0.151610 -0.152550 -0.151970 -0.153930 -0.156680 -0.156830 -0.157100 -0.159860 -0.161590 -0.161170 -0.162540 -0.165680 -0.168010 -0.171330 -0.176740 -0.180960 -0.182780 -0.184870 -0.188010 -0.190560 -0.192810 -0.195530 -0.196780 -0.195360 -0.194670 -0.197660 -0.200130 -0.198000 -0.195690 -0.197830 -0.201680 -0.203930 -0.206230 -0.208860 -0.209330 -0.208330 -0.208420 -0.209260 -0.208720 -0.206220 -0.203790 -0.203690 -0.206070 -0.208610 -0.209300 -0.208360 -0.206020 -0.201800 -0.196450 -0.192460 -0.191440 -0.191710 -0.190640 -0.187800 -0.184770 -0.182610 -0.180250 -0.177160 -0.174590 -0.173790 -0.174210 -0.174320 -0.174130 -0.174240 -0.173410 -0.170020 -0.166130 -0.165970 
Shapelet   3   0.182150  0.182150  0.182150  0.182150  0.125890  0.097762  0.125890  0.182150  0.182150  0.154020  0.069631  0.041501  0.182150  0.322810  0.379070  0.350940  0.238420  0.154020  0.154020  0.238420  0.322810  0.379070  0.407200  0.407200  0.350940  0.350940  0.379070  0.407200  0.463460  0.435330  0.350940  0.266550  0.266550  0.379070  0.407200  0.407200  0.435330  0.407200  0.350940  0.350940  0.407200  0.463460  0.463460  0.379070  0.322810  0.435330  0.463460  0.435330  0.350940  0.322810  0.322810  0.350940  0.435330  0.491590  0.491590  0.435330  0.322810  0.238420  0.294680  0.407200  0.407200  0.435330  0.435330  0.463460  0.463460  0.407200  0.407200  0.435330  0.407200  0.379070  0.379070  0.379070  0.407200  0.435330  0.379070  0.350940  0.322810  0.350940  0.435330  0.463460  0.463460  0.491590  0.463460  0.322810  0.294680  0.322810  0.322810  0.350940  0.350940  0.379070  0.322810  0.350940  0.435330  0.435330  0.435330  0.407200  0.379070  0.379070  0.407200  0.435330  0.463460  0.463460  0.435330  0.407200  0.379070  0.379070  0.435330  0.463460  0.435330  0.350940  0.322810  0.435330  0.463460  0.435330  0.407200  0.379070  0.322810  0.350940  0.379070  0.435330  0.491590  0.491590  0.491590  0.491590  0.463460  0.519720  0.491590  0.435330  0.379070  0.350940  0.294680  0.294680  0.407200  0.463460  0.435330  0.435330  0.407200  0.407200  0.435330  0.463460  0.547850  0.604110  0.604110  0.491590  0.435330  0.491590  0.519720  0.463460  0.407200  0.350940  0.322810  0.379070  0.379070  0.407200  0.379070  0.379070  0.350940  0.407200  0.491590  0.519720  0.575980  0.491590  0.407200  0.463460  0.407200  0.350940  0.379070  0.463460  0.463460  0.463460  0.379070  0.379070  0.435330  0.491590  0.547850  0.491590  0.407200  0.322810  0.294680  0.294680  0.350940  0.407200  0.407200  0.379070  0.379070  0.407200  0.379070  0.350940  0.322810  0.294680  0.322810  0.350940  0.407200  0.435330  0.350940  0.238420  0.238420  0.238420  0.322810  0.435330  0.519720  0.463460  0.435330  0.407200  0.379070  0.407200  0.407200  0.407200  0.407200  0.407200  0.266550  0.238420  0.210280  0.350940  0.435330  0.435330  0.379070  0.379070  0.407200  0.463460  0.463460  0.435330  0.322810  0.266550  0.238420  0.238420  0.350940  0.379070  0.322810  0.294680  0.322810  0.379070  0.379070  0.379070  0.379070  0.350940  0.322810  0.350940  0.435330  0.407200  0.407200  0.435330  0.435330  0.435330  0.407200  0.435330  0.407200  0.407200  0.350940  0.322810  0.294680  0.322810  0.294680  0.238420  0.294680  0.294680  0.350940  0.407200  0.407200  0.379070  0.463460  0.519720  0.491590  0.407200  0.379070  0.407200  0.435330  0.379070  0.322810  0.322810  0.294680  0.294680  0.322810  0.407200  0.435330  0.379070  0.350940  0.379070  0.435330  0.519720  0.604110  0.547850  0.463460  0.435330  0.435330  0.435330  0.407200  0.350940  0.322810  0.294680  0.322810  0.322810  0.294680  0.294680  0.379070  0.407200  0.379070  0.350940  0.379070  0.491590  0.519720  0.491590  0.463460  0.491590  0.463460  0.407200  0.407200  0.350940  0.322810  0.350940  0.350940  0.407200  0.435330  0.407200  0.379070  0.379070  0.322810  0.266550  0.350940  0.463460  0.604110  0.575980  0.463460  0.379070  0.407200  0.463460  0.519720  0.491590  0.435330  0.407200  0.322810  0.322810  0.350940  0.350940  0.379070  0.379070  0.350940  0.294680  0.322810  0.294680  0.350940  0.350940  0.407200  0.435330  0.379070  0.350940  0.350940  0.407200  0.407200  0.379070  0.379070  0.435330  0.519720  0.491590  0.435330  0.379070  0.350940  0.350940  0.322810  0.350940  0.379070  0.435330  0.463460  0.491590  0.491590  0.547850  0.547850  0.547850  0.519720  0.379070  0.322810  0.322810  0.322810  0.238420  0.238420  0.294680  0.379070  0.435330  0.463460  0.519720  0.575980  0.463460  0.407200  0.407200  0.435330  0.463460  0.463460  0.407200  0.407200  0.407200  0.350940  0.294680  0.350940  0.379070  0.350940  0.350940  0.350940  0.322810  0.350940  0.322810  0.379070  0.463460  0.519720  0.519720  0.463460  0.379070  0.379070  0.435330  0.435330  0.379070  0.379070  0.379070  0.322810  0.379070  0.407200  0.379070  0.350940  0.379070  0.407200  0.463460  0.463460  0.463460  0.463460  0.435330  0.407200  0.379070  0.379070  0.379070  0.350940  0.322810  0.322810  0.379070  0.379070  0.350940  0.294680  0.294680  0.350940  0.379070  0.379070  0.407200  0.407200  0.435330  0.435330  0.379070  0.407200  0.491590  0.463460  0.407200  0.322810  0.238420  0.266550  0.322810  0.350940  0.407200  0.435330  0.463460  0.379070  0.407200  0.407200  0.407200  0.435330  0.435330  0.463460  0.463460  0.379070  0.350940  0.294680  0.294680  0.238420  0.210280  0.154020  0.154020  0.210280  0.238420  0.210280  0.154020  0.125890  0.182150  0.182150  0.182150  0.154020  0.069631  0.013370 -0.014760 -0.014760  0.097762  0.154020  0.069631  0.013370 -0.127280 -0.183540 -0.211670 -0.183540 -0.155410 -0.211670 -0.239810 -0.239810 -0.352330 -0.380460 -0.324200 -0.239810 -0.239810 -0.239810 -0.267940 -0.380460 -0.436720 -0.436720 -0.380460 -0.380460 -0.436720 -0.492980 -0.521110 -0.549240 -0.549240 -0.605500 -0.633630 -0.633630 -0.661760 -0.633630 -0.577370 -0.521110 -0.521110 -0.577370 -0.661760 -0.633630 -0.633630 -0.605500 -0.605500 -0.661760 -0.802420 -0.774290 -0.661760 -0.661760 -0.718030 -0.746160 -0.746160 -0.718030 -0.661760 -0.633630 -0.577370 -0.661760 -0.633630 -0.605500 -0.605500 -0.521110 -0.436720 -0.464850 -0.521110 -0.577370 -0.633630 -0.661760 -0.689890 -0.718030 -0.633630 -0.549240 -0.521110 -0.549240 -0.521110 -0.464850 -0.464850 -0.464850 -0.436720 -0.324200 -0.324200 -0.324200 -0.296070 -0.296070 -0.183540 -0.099152 -0.127280 -0.211670 -0.211670 -0.183540 -0.155410 -0.155410 -0.071022 -0.042891 -0.042891 -0.071022 -0.014760  0.125890  0.182150  0.154020  0.154020  0.182150  0.266550  0.322810  0.407200  0.435330  0.350940  0.294680  0.322810  0.407200  0.435330  0.407200  0.463460  0.491590  0.519720  0.519720  0.632240  0.660370  0.632240  0.660370  0.632240  0.688500  0.744770  0.772900  0.716640  0.688500  0.660370  0.660370  0.604110  0.688500  0.772900  0.829160  0.772900  0.688500  0.632240  0.660370 
Shapelet   5  -2.837400 -2.919700 -3.082500 -3.352300 -3.691600 -4.047200 -4.359200 -4.496500 -4.342200 -3.954900 -3.446300 -2.799600 -1.975600 -1.028500 -0.061903  0.818050  1.563300  2.210100  2.790100  3.288900  3.692700  4.025900  4.341800  4.609400  4.700700  4.623900  4.542300  4.532700  4.575800  4.662500  4.744900  4.745700  4.657600  4.528200  4.392900  4.250000  4.075100 
Shapelet   6   0.103410  0.162260  0.234280  0.251040  0.258570  0.256370  0.266100  0.281310  0.283200  0.282470  0.285390  0.270140  0.238020  0.223970  0.237630  0.254190  0.259240  0.258370  0.257600  0.258200  0.258580  0.257550  0.257590  0.259280  0.257990  0.255350  0.261640  0.277000  0.287110  0.282330  0.268530  0.254280  0.240000  0.228510  0.232590  0.256820  0.288290  0.316880  0.341590  0.353520  0.344770  0.327310  0.313330  0.298970  0.284640  0.274280  0.256370  0.225940  0.205480  0.207750  0.214080  0.210460  0.206820  0.213810  0.228790  0.239830  0.235220  0.218980  0.209310  0.209970  0.209660  0.209660  0.220860  0.236330  0.238420  0.230390  0.231890  0.246800  0.258790  0.259580  0.257610  0.258080  0.257360  0.258270  0.269490  0.288630  0.303130  0.307860  0.305950  0.295740  0.276120  0.260180  0.258850  0.258840  0.245950  0.232450  0.232010  0.235780  0.234650  0.233610  0.234280  0.233400  0.237300  0.253090  0.272530  0.282180  0.282320  0.282110  0.282400  0.280600  0.281920  0.285390  0.278190  0.262480  0.255470  0.257940  0.258310  0.258470  0.259920  0.252390  0.236480  0.222240  0.207670  0.191600  0.185290  0.186970  0.179540  0.160770  0.143920  0.138750  0.154010  0.192760  0.235400  0.256590  0.257120  0.256190  0.265410  0.281390  0.288740  0.277460  0.261830  0.254290  0.237380  0.203690  0.185980  0.200690  0.216180  0.211980  0.206940  0.211140  0.212410  0.208920  0.209550  0.212870  0.209940  0.196890  0.181640  0.181590  0.204390  0.234200  0.252700  0.259290  0.259330  0.255860  0.257530  0.270560  0.284440  0.285810  0.274850  0.259940  0.252080  0.260690  0.277650  0.280380  0.262830  0.242780  0.233900  0.233380  0.234940  0.235190  0.228110  0.209780  0.190620  0.188250  0.203640  0.221950  0.233980  0.237490  0.232480  0.230620  0.243150  0.257330  0.259000  0.258500  0.260730  0.251280  0.235600  0.239120  0.261270  0.278320  0.283050  0.282790  0.275280  0.256730  0.238790  0.234050  0.235360  0.227450  0.210530  0.195270  0.182630  0.167960  0.157730  0.161950  0.176310  0.189470  0.202690  0.220610  0.233580  0.233780  0.235470  0.249820  0.262870  0.260410  0.246900  0.233230  0.229800  0.238420  0.238770  0.214550  0.186050  0.180030  0.191160  0.205020  0.221610  0.234130  0.226250  0.205140  0.202090  0.228200  0.256280  0.262570  0.257040  0.256010  0.262200  0.278070  0.299380  0.305040  0.290140  0.278920  0.281110  0.281900  0.282290  0.295790  0.308010  0.291940  0.261800  0.258030  0.277600  0.278940  0.261110  0.262790  0.281090  0.277310  0.251800  0.235110  0.237950  0.254980  0.275270  0.281760  0.278730  0.289080  0.304780  0.298680  0.280550  0.277620  0.284140  0.282730  0.285030  0.306540  0.328550  0.325610  0.309140  0.304790  0.305940  0.293930  0.279000  0.279000  0.284840  0.282530  0.279010  0.283080  0.285270  0.275310  0.260190  0.253550  0.259460  0.273400  0.287050  0.285860  0.262510  0.232650  0.215010  0.208930  0.208750  0.217620  0.234170  0.250120  0.260280  0.260480  0.254040  0.257160  0.273690  0.281800  0.267870  0.247460  0.235370  0.230250  0.236660  0.263330  0.296700  0.307500  0.292580  0.281900  0.294280  0.311050  0.309020  0.299040  0.306230  0.324970  0.327580  0.311290  0.300540  0.305400  0.310860  0.301150  0.272720  0.240480  0.232830  0.257900  0.285800  0.287650  0.276860  0.279950  0.288300  0.280070  0.272860  0.295430  0.325830  0.330680  0.330080  0.346550  0.352040  0.334250  0.330720  0.353240  0.363830  0.346870  0.331510  0.327520  0.308440  0.265180  0.227780  0.214410  0.201810  0.169000  0.125070  0.085443  0.055964  0.032921  0.003867 -0.032666 -0.052043 -0.040447 -0.020313 -0.007710  0.011445  0.044596  0.068250  0.063109  0.046970  0.043065  0.043890  0.033096  0.015476  0.001708 -0.011829 -0.026258 -0.038720 -0.055112 -0.071389 -0.075408 -0.074381 -0.085463 -0.100490 -0.101160 -0.100030 -0.116620 -0.140410 -0.146520 -0.132230 -0.119780 -0.121020 -0.125520 -0.123120 -0.119420 -0.126210 -0.141300 -0.151700 -0.147740 -0.133980 -0.119060 -0.093020 -0.052745 -0.028221 -0.037593 -0.052790 -0.051520 -0.055330 -0.072219 -0.079829 -0.074599 -0.063366 -0.040085 -0.010327  0.007711  0.020304  0.038147  0.044096  0.042209  0.050227  0.044823  0.004218 -0.034583 -0.034758 -0.017067 -0.004729 -0.004765 -0.037034 -0.095798 -0.145430 -0.185680 -0.241680 -0.294960 -0.313410 -0.313070 -0.314100 -0.306440 -0.288760 -0.274230 -0.258980 -0.229780 -0.194620 -0.170880 -0.157440 -0.140510 -0.112130 -0.078633 -0.052936 -0.044747 -0.054163 -0.058007 -0.036524 -0.006886  0.002869 -0.005239 -0.007948  0.004453  0.035198  0.074563  0.091515  0.078736  0.062311  0.050013  0.019062 -0.028904 -0.063562 -0.079351 -0.092596 -0.114240 -0.145450 -0.170530 -0.165890 -0.135620 -0.110300 -0.099884 -0.096737 -0.099786 -0.090854 -0.054647 -0.027967 -0.041117 -0.050476 -0.021573  0.002973 -0.002158 -0.000142  0.021233  0.037669  0.047985  0.062737  0.076434  0.091129  0.117490  0.147980  0.175830  0.202350  0.211160  0.188200  0.157300  0.153870  0.177910  0.206530  0.232960  0.263420  0.294260  0.311380  0.308370  0.293910  0.281090  0.278000  0.286700  0.301890  0.310590  0.305550  0.300860  0.309340  0.310930  0.291340  0.281510  0.305700  0.335780  0.348150  0.365350  0.397440  0.420110  0.424980  0.424860  0.424120  0.423990  0.433300  0.450920  0.465770  0.477420  0.491540  0.514220  0.545800  0.567730  0.563240  0.547380  0.538340  0.520500  0.486840  0.471780  0.488400  0.501930  0.496750  0.501600  0.525580  0.530820  0.501070  0.474040  0.472840  0.470780  0.454140  0.447940  0.450030  0.436180  0.424800  0.438010  0.451970  0.449510  0.449420  0.448440  0.423870  0.391120  0.376970  0.381730  0.399880  0.428440  0.454130  0.467710  0.479930  0.494950  0.500500  0.494890  0.492500  0.502940  0.518080  0.523760  0.519380  0.517080  0.523170  0.523260  0.502470  0.470840  0.450930  0.449450  0.450890  0.436180  0.401540  0.365660  0.351610  0.353110  0.351740  0.352760  0.365510  0.379940  0.392480  0.412440  0.425180  0.412820  0.400580  0.413610  0.431170  0.427830  0.412700  0.399930  0.386380  0.371010  0.357180  0.343300  0.329320  0.324030  0.334350  0.349810  0.355620  0.353530  0.352050  0.354600  0.367380  0.391330  0.401970  0.379980  0.347990  0.332020  0.328250  0.328870  0.332670  0.328140  0.312200  0.304100  0.306160  0.298120  0.281110  0.276040  0.286820  0.301210  0.314940  0.329380  0.343260  0.357810  0.372590  0.381380  0.378060  0.364570  0.350970  0.349170  0.361260  0.375800  0.380530  0.376460  0.374660  0.382660  0.398440  0.402780  0.373160  0.317090  0.262240  0.222050  0.182170  0.138170  0.106890  0.085124  0.058493  0.017807 -0.025510 -0.069920 -0.145990 -0.256730 -0.386250 -0.512690 -0.634720 -0.768450 -0.916270 -1.096100 -1.297300 -1.510400 -1.749800 -2.010800 -2.291700 -2.572700 -2.861300 -3.165300 -3.470200 -3.784000 -4.078400 -4.355900 -4.645200 -4.950900 -5.260700 -5.539900 -5.811400 -6.080600 -6.319300 -6.526800 -6.708000 -6.888600 -7.074600 -7.246600 -7.382200 -7.460500 -7.490700 -7.471900 -7.402200 -7.308200 -7.184900 -6.987100 -6.685600 -6.298600 -5.879900 -5.427400 -4.934700 -4.440400 -3.969300 -3.506400 -2.998300 -2.453600 -1.872600 -1.202800 -0.434340  0.394910  1.194000  1.893600  2.448500  2.842800  3.121300  3.302600  3.393700  3.395600  3.330000  3.238400  3.135900  3.053400  3.013700  3.002900  2.976000  2.904000  2.798300  2.673700  2.545500  2.425800  2.316200  2.202600  2.089500  1.967300  1.812000  1.622500  1.431100 


; cmd = /home/grad00/soren885/capstone/ShapeletResearch/Execs/FastShapelet /home/grad00/soren885/capstone/Shapelet_Datasets/UCR_Master/CinC_ECG_torso_TRAIN 4 40 820 1 2 10 euclidean 0 0 10 ./replications/CinC_ECG_torso/CinC_ECG_torso_euclidean_unnormed_NOCID_REP17_tree.txt ./replications/CinC_ECG_torso/CinC_ECG_torso_euclidean_unnormed_NOCID_REP17_time.txt
; time =>  349.509  17.717  84.247   6.238 234.724 
; command = /home/grad00/soren885/capstone/ShapeletResearch/Execs/Classify /home/grad00/soren885/capstone/Shapelet_Datasets/UCR_Master/CinC_ECG_torso_TEST 4 1380 euclidean 0 0 ./replications/CinC_ECG_torso/CinC_ECG_torso_euclidean_unnormed_NOCID_REP17_tree.txt ./replications/CinC_ECG_torso/CinC_ECG_torso_euclidean_unnormed_NOCID_REP17_acc.txt
; accuracy= 67.464   Correct:931 , Wrong: 449


;   == Confusion Matrix ==
;   real |   3    2    4    1 
;   -----+------------------------
;   p  3 | 190   51    7   59 
;   p  2 | 115  277   11   46 
;   p  4 |  32    4  303   84 
;   p  1 |   6   10   24  161 

