;Shapelet Tree 

;random seed:1503445439, rand()=962685526, rand()=555169119
;command = /home/grad00/soren885/capstone/ShapeletResearch/Execs/FastShapelet /home/grad00/soren885/capstone/Shapelet_Datasets/UCR_Master/CinC_ECG_torso_TRAIN 4 40 820 1 2 10 euclidean 1 1 10 ./replications/CinC_ECG_torso/CinC_ECG_torso_euclidean_normed_CID_REP09_tree.txt ./replications/CinC_ECG_torso/CinC_ECG_torso_euclidean_normed_CID_REP09_time.txt 

;Local Class:   0  1  2  3 
;Real  Class:   1  3  4  2 

;Node ID class   obj  pos  len  dist_th 
TreeSize: 8 
NonL  1    --      1    4    5   0.5282 ==>   0  12  10   1  /   5   0   0  12 
NonL  2    --      7  123  731  32.9504 ==>   0  12   0   0  /   0   0  10   1 
NonL  3    --     13  102  549  19.3726 ==>   5   0   0   0  /   0   0   0  12 
Leaf  4     3    
Leaf  5     4    
Leaf  6     1    
Leaf  7     2    

;Shapelet id   <data>
Shapelet   1   0.266580  0.233220  0.243510  0.256340  0.225550 
Shapelet   2  -0.092451 -0.087437 -0.091730 -0.093410 -0.085761 -0.077770 -0.073761 -0.069866 -0.069366 -0.074500 -0.075843 -0.071519 -0.070408 -0.070169 -0.065904 -0.065647 -0.072033 -0.075948 -0.077686 -0.083233 -0.084071 -0.073233 -0.063586 -0.060552 -0.053745 -0.047145 -0.047798 -0.046077 -0.041753 -0.045685 -0.054739 -0.060070 -0.060023 -0.056383 -0.052909 -0.049407 -0.042156 -0.035535 -0.035892 -0.038288 -0.035447 -0.031248 -0.032956 -0.037755 -0.037595 -0.032843 -0.031234 -0.035431 -0.040259 -0.043099 -0.046994 -0.050111 -0.046034 -0.037970 -0.033435 -0.029737 -0.025618 -0.027139 -0.032689 -0.036298 -0.037106 -0.036751 -0.040833 -0.048036 -0.046316 -0.041882 -0.048844 -0.053590 -0.044345 -0.036362 -0.037832 -0.041741 -0.043720 -0.040864 -0.036756 -0.039144 -0.043299 -0.042528 -0.043448 -0.051189 -0.058676 -0.059875 -0.059612 -0.063986 -0.069642 -0.070062 -0.065637 -0.061039 -0.058878 -0.059128 -0.059715 -0.058954 -0.059012 -0.062205 -0.066566 -0.070135 -0.073980 -0.077250 -0.076569 -0.072629 -0.069978 -0.070370 -0.073102 -0.079084 -0.086841 -0.091817 -0.094249 -0.098344 -0.103210 -0.104720 -0.104410 -0.107340 -0.111760 -0.110550 -0.105270 -0.106220 -0.115090 -0.121660 -0.120070 -0.115990 -0.115070 -0.116990 -0.121150 -0.125680 -0.128140 -0.132430 -0.138180 -0.136800 -0.132800 -0.136140 -0.138600 -0.133080 -0.127830 -0.127760 -0.132540 -0.138030 -0.137610 -0.138280 -0.146250 -0.151400 -0.155230 -0.166580 -0.175660 -0.178000 -0.182130 -0.183230 -0.178090 -0.179410 -0.187990 -0.189380 -0.181580 -0.176600 -0.178050 -0.176060 -0.168530 -0.166750 -0.171530 -0.171090 -0.166700 -0.169270 -0.174590 -0.172280 -0.169890 -0.177150 -0.183760 -0.183120 -0.186800 -0.195230 -0.196520 -0.193800 -0.195120 -0.195930 -0.193830 -0.195240 -0.202480 -0.210120 -0.211920 -0.208350 -0.203990 -0.200520 -0.199770 -0.201870 -0.200440 -0.198630 -0.205700 -0.212130 -0.211170 -0.216020 -0.223580 -0.220530 -0.214570 -0.211780 -0.210480 -0.216600 -0.223550 -0.220240 -0.214810 -0.211620 -0.207140 -0.207390 -0.212510 -0.216240 -0.220160 -0.223560 -0.226450 -0.234540 -0.240330 -0.233250 -0.223860 -0.223620 -0.224580 -0.219860 -0.217940 -0.225280 -0.233730 -0.234230 -0.230030 -0.228260 -0.229090 -0.229190 -0.228600 -0.229070 -0.229230 -0.228290 -0.229370 -0.233330 -0.235720 -0.234270 -0.233760 -0.237180 -0.240800 -0.244530 -0.246840 -0.237790 -0.224480 -0.227930 -0.242760 -0.250680 -0.252440 -0.250950 -0.246520 -0.247350 -0.252340 -0.252340 -0.250470 -0.252020 -0.252350 -0.248690 -0.245520 -0.245470 -0.247680 -0.253050 -0.260990 -0.265050 -0.261740 -0.257440 -0.258910 -0.264060 -0.267940 -0.269140 -0.268250 -0.268030 -0.271070 -0.275070 -0.278690 -0.283470 -0.285370 -0.281170 -0.277750 -0.281420 -0.289420 -0.293820 -0.289240 -0.281220 -0.276960 -0.272860 -0.268690 -0.270670 -0.275270 -0.278790 -0.284010 -0.284610 -0.276150 -0.270930 -0.276480 -0.284320 -0.288610 -0.292320 -0.296250 -0.297690 -0.296050 -0.292130 -0.287470 -0.285130 -0.285330 -0.287100 -0.294070 -0.306130 -0.312120 -0.304530 -0.292630 -0.288920 -0.292640 -0.296450 -0.297410 -0.296360 -0.296450 -0.299970 -0.303080 -0.302600 -0.304020 -0.310540 -0.314030 -0.310430 -0.307670 -0.308140 -0.307830 -0.308620 -0.308610 -0.304060 -0.303090 -0.307770 -0.306740 -0.300020 -0.296910 -0.297190 -0.296060 -0.291940 -0.284930 -0.276760 -0.269400 -0.262180 -0.254020 -0.246680 -0.239640 -0.231540 -0.228780 -0.231020 -0.225070 -0.212910 -0.207730 -0.204160 -0.195700 -0.192740 -0.196560 -0.195450 -0.190310 -0.189650 -0.189590 -0.185070 -0.184930 -0.194290 -0.198960 -0.190190 -0.183630 -0.190170 -0.196990 -0.195280 -0.191160 -0.188370 -0.189160 -0.194000 -0.193580 -0.184230 -0.175140 -0.171270 -0.172230 -0.179150 -0.186390 -0.183980 -0.175370 -0.171180 -0.166960 -0.155650 -0.146510 -0.144150 -0.138440 -0.127070 -0.115960 -0.105020 -0.092904 -0.081928 -0.076181 -0.077804 -0.081836 -0.082681 -0.080476 -0.076168 -0.074262 -0.080097 -0.087554 -0.090827 -0.097996 -0.110310 -0.113270 -0.106910 -0.110400 -0.123720 -0.127000 -0.121340 -0.121040 -0.119980 -0.109710 -0.100400 -0.098770 -0.098805 -0.098449 -0.099764 -0.098628 -0.091457 -0.083846 -0.081907 -0.085208 -0.090612 -0.093148 -0.089749 -0.085762 -0.087878 -0.095412 -0.102490 -0.104480 -0.103980 -0.106380 -0.110460 -0.114040 -0.118650 -0.121560 -0.121250 -0.123130 -0.127520 -0.131200 -0.135400 -0.138680 -0.141690 -0.149080 -0.155900 -0.159060 -0.165920 -0.172830 -0.172750 -0.173590 -0.178650 -0.182180 -0.188430 -0.202800 -0.218840 -0.228030 -0.228690 -0.224840 -0.220860 -0.217110 -0.213060 -0.211100 -0.212210 -0.212370 -0.212100 -0.219340 -0.231660 -0.236410 -0.234360 -0.237290 -0.247500 -0.258970 -0.267050 -0.269260 -0.268710 -0.275550 -0.288230 -0.290550 -0.285340 -0.289900 -0.297790 -0.300530 -0.311030 -0.327930 -0.335670 -0.338080 -0.343170 -0.347000 -0.349610 -0.354480 -0.358380 -0.360520 -0.366350 -0.374460 -0.377030 -0.375980 -0.379570 -0.387470 -0.394220 -0.398010 -0.399180 -0.398370 -0.398150 -0.400920 -0.405310 -0.409150 -0.410930 -0.409390 -0.409070 -0.413630 -0.415220 -0.410750 -0.410730 -0.417330 -0.421110 -0.421080 -0.421110 -0.417280 -0.410490 -0.410950 -0.415550 -0.411320 -0.402010 -0.398600 -0.398920 -0.398380 -0.398470 -0.398930 -0.398380 -0.398450 -0.399080 -0.398190 -0.398230 -0.400100 -0.396700 -0.388520 -0.385780 -0.387810 -0.387550 -0.387000 -0.386980 -0.382850 -0.377060 -0.376460 -0.380760 -0.385260 -0.387830 -0.387710 -0.384310 -0.380730 -0.381270 -0.383000 -0.380060 -0.376130 -0.378370 -0.382690 -0.382080 -0.380490 -0.382510 -0.382330 -0.375520 -0.368020 -0.364880 -0.364480 -0.364680 -0.364680 -0.366590 -0.372870 -0.376340 -0.370100 -0.362210 -0.359330 -0.356110 -0.352100 -0.353030 -0.355440 -0.349970 -0.337730 -0.330000 -0.333020 -0.341390 -0.344490 -0.339470 -0.336320 -0.340200 -0.341610 -0.336870 -0.335180 -0.336590 -0.331510 -0.324850 -0.326460 -0.325700 -0.316380 -0.314650 -0.319410 -0.316280 -0.313290 -0.313960 -0.309600 -0.309040 -0.313740 -0.311100 -0.306440 -0.302860 -0.294500 -0.290440 -0.291280 -0.287290 -0.285430 -0.285690 -0.278330 -0.272550 -0.274170 -0.274410 -0.274470 -0.274330 -0.267430 -0.259700 -0.257280 -0.256690 -0.258430 -0.262860 -0.266600 -0.270370 -0.274220 -0.277260 -0.283470 -0.291220 -0.287570 -0.270840 -0.262950 -0.275840 -0.295400 -0.314090 -0.334050 -0.349550 -0.365140 -0.386300 -0.394960 -0.381250 -0.356660 -0.324320 -0.284280 -0.243160 -0.201600 -0.159490 -0.113690 -0.054492  0.011461  0.068912  0.121070  0.175590  0.233330  0.301750  0.387470  0.489520  0.604340  0.723480  0.842460  0.963350  1.073700  1.163100  1.255000  1.377100  1.529900  1.704700  1.891300  2.075700  2.251600  2.423100  2.608500  2.821200  3.038800  3.242600  3.458700  3.707200  3.976100  4.245200  4.485400  4.690500  4.896200  5.114400  5.324800  5.525700  5.717200  5.893800  6.058500  6.196700  6.298000  6.389700  6.488500  6.577400  6.635500  6.642300  6.597600  6.531900  6.449500  6.322400  6.136600  5.882200  5.559300  5.204500  4.852000  4.522000  4.240900  4.003200  3.765000  3.497700  3.194100  2.855100  2.510400  2.201500  1.933500  1.685100  1.427800  1.111300  0.702900  0.231460 -0.259220 -0.748360 -1.221800 -1.675400 -2.102800 -2.472100 -2.767500 -3.006800 -3.196100 -3.329100 -3.411000 -3.448100 -3.450500 -3.439300 -3.420800 -3.382900 -3.326200 -3.273400 -3.239000 -3.219000 -3.207500 
Shapelet   3   0.764020  0.797060  0.830090  0.830090  0.797060  0.797060  0.863130  0.863130  0.764020  0.764020  0.764020  0.598860  0.598860  0.730990  0.863130  0.863130  0.797060  0.697960  0.664920  0.598860  0.631890  0.764020  0.797060  0.830090  0.863130  0.730990  0.598860  0.664920  0.730990  0.730990  0.598860  0.598860  0.664920  0.697960  0.697960  0.664920  0.730990  0.797060  0.730990  0.697960  0.664920  0.764020  0.863130  0.797060  0.631890  0.532790  0.532790  0.565820  0.730990  0.797060  0.830090  0.830090  0.730990  0.631890  0.598860  0.565820  0.499760  0.499760  0.565820  0.532790  0.565820  0.631890  0.598860  0.631890  0.697960  0.730990  0.697960  0.631890  0.598860  0.664920  0.664920  0.631890  0.598860  0.598860  0.631890  0.631890  0.565820  0.466720  0.466720  0.499760  0.565820  0.565820  0.466720  0.367620  0.433690  0.664920  0.764020  0.697960  0.697960  0.730990  0.664920  0.697960  0.697960  0.664920  0.631890  0.532790  0.499760  0.565820  0.598860  0.565820  0.532790  0.631890  0.598860  0.598860  0.598860  0.565820  0.664920  0.730990  0.730990  0.730990  0.764020  0.730990  0.565820  0.532790  0.532790  0.565820  0.532790  0.532790  0.532790  0.532790  0.565820  0.565820  0.532790  0.598860  0.664920  0.730990  0.730990  0.730990  0.730990  0.730990  0.664920  0.631890  0.598860  0.631890  0.664920  0.598860  0.532790  0.565820  0.532790  0.433690  0.433690  0.466720  0.565820  0.598860  0.598860  0.631890  0.631890  0.664920  0.631890  0.631890  0.664920  0.565820  0.499760  0.565820  0.664920  0.598860  0.499760  0.466720  0.466720  0.466720  0.466720  0.466720  0.532790  0.631890  0.664920  0.598860  0.565820  0.532790  0.565820  0.565820  0.598860  0.532790  0.499760  0.499760  0.598860  0.664920  0.664920  0.598860  0.565820  0.466720  0.499760  0.598860  0.664920  0.631890  0.532790  0.466720  0.433690  0.466720  0.565820  0.598860  0.565820  0.532790  0.499760  0.565820  0.565820  0.631890  0.664920  0.598860  0.499760  0.433690  0.400660  0.367620  0.400660  0.433690  0.433690  0.466720  0.499760  0.433690  0.433690  0.532790  0.598860  0.598860  0.631890  0.598860  0.631890  0.631890  0.598860  0.532790  0.433690  0.400660  0.400660  0.433690  0.466720  0.400660  0.400660  0.400660  0.367620  0.400660  0.499760  0.532790  0.499760  0.532790  0.565820  0.532790  0.532790  0.664920  0.697960  0.565820  0.433690  0.433690  0.565820  0.532790  0.499760  0.367620  0.367620  0.466720  0.532790  0.565820  0.697960  0.664920  0.499760  0.466720  0.400660  0.466720  0.466720  0.499760  0.499760  0.433690  0.400660  0.433690  0.466720  0.433690  0.433690  0.400660  0.433690  0.499760  0.499760  0.532790  0.466720  0.499760  0.532790  0.499760  0.499760  0.466720  0.499760  0.499760  0.433690  0.367620  0.367620  0.367620  0.367620  0.367620  0.367620  0.433690  0.400660  0.235490  0.169420  0.301550  0.433690  0.565820  0.532790  0.565820  0.565820  0.532790  0.532790  0.466720  0.433690  0.400660  0.400660  0.400660  0.466720  0.565820  0.631890  0.565820  0.532790  0.532790  0.499760  0.499760  0.499760  0.532790  0.433690  0.334590  0.334590  0.466720  0.466720  0.400660  0.400660  0.400660  0.400660  0.433690  0.466720  0.400660  0.400660  0.466720  0.466720  0.400660  0.400660  0.433690  0.466720  0.532790  0.565820  0.532790  0.532790  0.499760  0.499760  0.565820  0.532790  0.466720  0.400660  0.400660  0.433690  0.466720  0.400660  0.400660  0.400660  0.400660  0.367620  0.301550  0.301550  0.367620  0.334590  0.301550  0.268520  0.235490  0.169420  0.103350  0.004253 -0.061815 -0.127880 -0.193950 -0.160920 -0.260020 -0.392150 -0.491250 -0.425180 -0.392150 -0.425180 -0.458220 -0.425180 -0.458220 -0.557320 -0.590350 -0.623390 -0.557320 -0.590350 -0.656420 -0.590350 -0.557320 -0.623390 -0.722490 -0.689450 -0.623390 -0.590350 -0.656420 -0.722490 -0.656420 -0.491250 -0.425180 -0.293050 -0.293050 -0.359120 -0.392150 -0.392150 -0.392150 -0.392150 -0.392150 -0.359120 -0.425180 -0.623390 -0.755520 -0.821590 -0.755520 -0.821590 -0.920690 -0.953720 -1.052800 -1.118900 -1.019800 -0.887650 -0.788550 -0.788550 -0.722490 -0.656420 -0.557320 -0.392150 -0.293050 -0.193950 -0.094848 -0.094848 -0.160920 -0.226980 -0.293050 -0.226980 -0.127880 -0.127880 -0.293050 -0.425180 -0.458220 -0.491250 -0.491250 -0.458220 -0.293050 -0.193950 -0.160920 -0.226980 -0.160920 -0.094848 -0.061815 -0.127880 -0.160920 -0.094848 -0.193950 -0.226980 -0.226980 -0.226980 -0.326080 -0.260020 -0.160920 -0.061815  0.037286  0.103350  0.103350  0.070320  0.070320  0.169420  0.235490  0.334590  0.334590  0.301550  0.400660  0.499760  0.565820  0.532790  0.532790  0.532790  0.499760  0.532790  0.565820  0.764020  0.929190  0.863130  0.664920  0.532790  0.565820  0.697960  0.664920  0.532790  0.499760  0.532790  0.565820  0.565820  0.532790  0.598860  0.631890  0.664920  0.631890  0.631890  0.664920  0.697960  0.730990  0.730990  0.797060  0.730990  0.598860  0.598860  0.598860  0.565820  0.466720  0.433690  0.400660  0.466720  0.631890  0.764020  0.730990  0.664920  0.532790  0.499760  0.598860  0.565820  0.565820  0.631890  0.664920  0.598860  0.631890  0.631890  0.631890  0.631890  0.664920  0.565820  0.499760  0.433690  0.400660  0.301550  0.202450  0.235490  0.202450  0.037286 -0.061815 -0.061815 -0.160920 -0.326080 -0.590350 -0.854620 -1.085900 -1.284100 -1.449200 -1.614400 -1.977800 -2.407200 -2.902700 -3.266100 -3.497300 -3.662500 -3.728500 -3.662500 -3.728500 -3.860700 -3.893700 -3.827600 


; cmd = /home/grad00/soren885/capstone/ShapeletResearch/Execs/FastShapelet /home/grad00/soren885/capstone/Shapelet_Datasets/UCR_Master/CinC_ECG_torso_TRAIN 4 40 820 1 2 10 euclidean 1 1 10 ./replications/CinC_ECG_torso/CinC_ECG_torso_euclidean_normed_CID_REP09_tree.txt ./replications/CinC_ECG_torso/CinC_ECG_torso_euclidean_normed_CID_REP09_time.txt
; time =>  1268.628  10.672  49.875   3.711 1199.631 
; command = /home/grad00/soren885/capstone/ShapeletResearch/Execs/Classify /home/grad00/soren885/capstone/Shapelet_Datasets/UCR_Master/CinC_ECG_torso_TEST 4 1380 euclidean 1 1 ./replications/CinC_ECG_torso/CinC_ECG_torso_euclidean_normed_CID_REP09_tree.txt ./replications/CinC_ECG_torso/CinC_ECG_torso_euclidean_normed_CID_REP09_acc.txt
; accuracy= 70.145   Correct:968 , Wrong: 412


;   == Confusion Matrix ==
;   real |   3    2    4    1 
;   -----+------------------------
;   p  3 | 252   48   15    1 
;   p  2 |  10  246    5  111 
;   p  4 |  80    7  325   93 
;   p  1 |   1   41    0  145 

