;Shapelet Tree 

;random seed:1503392299, rand()=690130443, rand()=549340985
;command = /home/grad00/soren885/capstone/ShapeletResearch/Execs/FastShapelet /home/grad00/soren885/capstone/Shapelet_Datasets/UCR_Master/CinC_ECG_torso_TRAIN 4 40 820 1 2 10 manhattan 1 1 10 ./replications/CinC_ECG_torso/CinC_ECG_torso_manhattan_normed_CID_REP07_tree.txt ./replications/CinC_ECG_torso/CinC_ECG_torso_manhattan_normed_CID_REP07_time.txt 

;Local Class:   0  1  2  3 
;Real  Class:   1  3  4  2 

;Node ID class   obj  pos  len  dist_th 
TreeSize: 10 
NonL  1    --      6   47  745  611.7575 ==>   1  12   0  13  /   4   0  10   0 
NonL  2    --      0  1400   57  19.8760 ==>   0  12   0   2  /   1   0   0  11 
NonL  3    --     12  1047  497  564.6075 ==>   4   0   0   0  /   0   0  10   0 
NonL  4    --      0  533   51   8.6267 ==>   0  12   0   0  /   0   0   0   2 
Leaf  5     2    
Leaf  6     1    
Leaf  7     4    
Leaf  8     3    
Leaf  9     2    

;Shapelet id   <data>
Shapelet   1  -0.141000 -0.137410 -0.135420 -0.135020 -0.135540 -0.135830 -0.134480 -0.134900 -0.139930 -0.144430 -0.144380 -0.144400 -0.147590 -0.149750 -0.148000 -0.144940 -0.144040 -0.146900 -0.152540 -0.157030 -0.157730 -0.156590 -0.156640 -0.157390 -0.156970 -0.156280 -0.157520 -0.160290 -0.161980 -0.161410 -0.159390 -0.156130 -0.151120 -0.145310 -0.140370 -0.136910 -0.135290 -0.137020 -0.142330 -0.147560 -0.148990 -0.148290 -0.150000 -0.154280 -0.156860 -0.156410 -0.156930 -0.161420 -0.167160 -0.169800 -0.169620 -0.169820 -0.170570 -0.169360 -0.166520 -0.165090 -0.165500 -0.165600 -0.165700 -0.168040 -0.171220 -0.170670 -0.165620 -0.160940 -0.160330 -0.161800 -0.161610 -0.160470 -0.161310 -0.162360 -0.160080 -0.157070 -0.158170 -0.161180 -0.161700 -0.161180 -0.161370 -0.160740 -0.161000 -0.165290 -0.170840 -0.173500 -0.175170 -0.178040 -0.179650 -0.178180 -0.175490 -0.173210 -0.170630 -0.167530 -0.165490 -0.165310 -0.165640 -0.165580 -0.165600 -0.165570 -0.165320 -0.165780 -0.166010 -0.164130 -0.161420 -0.159200 -0.156050 -0.153010 -0.152840 -0.152820 -0.151190 -0.153430 -0.159430 -0.161430 -0.160850 -0.165040 -0.170180 -0.170230 -0.170450 -0.173650 -0.173500 -0.169780 -0.168850 -0.170330 -0.170200 -0.169540 -0.169870 -0.169990 -0.169880 -0.169940 -0.169680 -0.169810 -0.170470 -0.169450 -0.166600 -0.165100 -0.165480 -0.165600 -0.165600 -0.165920 -0.164730 -0.161860 -0.160290 -0.161380 -0.163780 -0.166690 -0.169340 -0.170350 -0.169890 -0.169590 -0.170040 -0.170170 -0.168830 -0.165820 -0.162580 -0.161080 -0.161150 -0.161240 -0.161220 -0.161550 -0.161020 -0.158480 -0.155950 -0.156420 -0.159310 -0.161350 -0.161420 -0.161230 -0.161310 -0.160910 -0.161290 -0.163730 -0.166200 -0.166170 -0.163960 -0.161330 -0.160320 -0.161740 -0.162190 -0.159190 -0.156940 -0.157680 -0.156290 -0.152720 -0.154420 -0.160430 -0.162560 -0.161070 -0.160970 -0.161160 -0.160900 -0.164120 -0.170250 -0.173840 -0.174100 -0.174080 -0.174380 -0.174200 -0.173990 -0.174340 -0.174470 -0.173150 -0.170140 -0.166940 -0.165370 -0.165380 -0.165680 -0.165590 -0.165460 -0.165590 -0.165620 -0.165480 -0.165520 -0.165690 -0.165530 -0.165230 -0.166160 -0.168920 -0.172200 -0.174230 -0.174500 -0.174040 -0.174040 -0.174430 -0.174220 -0.173820 -0.174440 -0.174750 -0.172740 -0.170070 -0.169410 -0.169970 -0.169940 -0.169940 -0.170010 -0.168260 -0.165200 -0.164350 -0.167010 -0.169690 -0.168870 -0.165320 -0.162180 -0.160980 -0.161010 -0.162320 -0.165550 -0.168890 -0.169900 -0.169610 -0.171020 -0.173980 -0.176590 -0.179160 -0.181940 -0.183270 -0.182900 -0.182720 -0.182730 -0.180580 -0.176530 -0.174190 -0.175580 -0.178830 -0.181630 -0.183380 -0.183310 -0.180920 -0.178470 -0.178090 -0.178650 -0.178580 -0.178520 -0.178540 -0.176750 -0.173160 -0.170330 -0.169820 -0.169950 -0.168230 -0.164840 -0.161940 -0.160950 -0.161180 -0.161360 -0.161210 -0.161010 -0.161740 -0.164510 -0.169320 -0.174480 -0.177720 -0.178620 -0.178510 -0.178550 -0.178520 -0.178330 -0.178630 -0.178710 -0.178130 -0.178440 -0.179250 -0.178050 -0.177230 -0.181430 -0.186780 -0.186280 -0.182180 -0.179550 -0.177280 -0.174560 -0.173810 -0.174200 -0.173970 -0.174570 -0.174720 -0.171860 -0.169890 -0.172280 -0.174610 -0.174200 -0.175250 -0.178410 -0.179330 -0.178210 -0.178160 -0.178890 -0.178630 -0.176810 -0.173450 -0.170400 -0.169970 -0.170100 -0.167810 -0.165370 -0.165240 -0.165640 -0.165520 -0.165810 -0.165510 -0.164760 -0.166620 -0.169590 -0.168880 -0.165590 -0.163110 -0.160190 -0.157070 -0.158720 -0.165080 -0.169530 -0.169720 -0.169480 -0.170480 -0.170170 -0.167560 -0.165350 -0.165260 -0.165800 -0.165720 -0.164460 -0.160790 -0.155390 -0.151270 -0.148990 -0.146420 -0.143940 -0.142130 -0.137730 -0.129740 -0.122200 -0.118210 -0.116050 -0.112730 -0.107700 -0.101780 -0.096944 -0.094193 -0.091573 -0.086802 -0.080323 -0.075528 -0.073165 -0.070111 -0.065122 -0.059801 -0.054841 -0.048271 -0.039904 -0.032114 -0.024802 -0.017068 -0.009943 -0.005899 -0.005536 -0.006089 -0.006114 -0.005825 -0.005882 -0.006141 -0.005884 -0.005985 -0.005574 -0.002349  0.003137  0.007529  0.009679  0.013314  0.018835  0.022818  0.024308  0.022500  0.017490  0.012115  0.010515  0.011382  0.010920  0.011789  0.014531  0.016896  0.019800  0.026080  0.035247  0.042821  0.050144  0.061503  0.077679  0.097282  0.117650  0.137800  0.155350  0.167870  0.176230  0.181810  0.184430  0.181250  0.174260  0.171040  0.173400  0.175550  0.172670  0.167160  0.162480  0.157710  0.151540  0.141630  0.127090  0.111760  0.098408  0.085849  0.070716  0.053504  0.035640  0.016885  0.000150 -0.013058 -0.024467 -0.037390 -0.051744 -0.062881 -0.069018 -0.071744 -0.074295 -0.075700 -0.070404 -0.058353 -0.044916 -0.034668 -0.027680 -0.023282 -0.020915 -0.018161 -0.017419 -0.022665 -0.030912 -0.038028 -0.046885 -0.059981 -0.071681 -0.078340 -0.083455 -0.088468 -0.091438 -0.092893 -0.095529 -0.100160 -0.105480 -0.110740 -0.115610 -0.120650 -0.126350 -0.131010 -0.132270 -0.130450 -0.130080 -0.133300 -0.135380 -0.133260 -0.130680 -0.130640 -0.131610 -0.134490 -0.142890 -0.154420 -0.162830 -0.167630 -0.172830 -0.178950 -0.183100 -0.185390 -0.188490 -0.191140 -0.191310 -0.191500 -0.194010 -0.196190 -0.195840 -0.196470 -0.199910 -0.203060 -0.204940 -0.209470 -0.218850 -0.229240 -0.237360 -0.244620 -0.250430 -0.252120 -0.251730 -0.253630 -0.256420 -0.256540 -0.256040 -0.256270 -0.254770 -0.251720 -0.250680 -0.252830 -0.255450 -0.257580 -0.260480 -0.263480 -0.264990 -0.264860 -0.264730 -0.264830 -0.264380 -0.265130 -0.267750 -0.270010 -0.269440 -0.266770 -0.264450 -0.262030 -0.258880 -0.256420 -0.255920 -0.256170 -0.255790 -0.256750 -0.259480 -0.263290 -0.269300 -0.275560 -0.277960 -0.277550 -0.278470 -0.277930 -0.272540 -0.268510 -0.268880 -0.268220 -0.265100 -0.264060 -0.264780 -0.262460 -0.258510 -0.256410 -0.254580 -0.251450 -0.250140 -0.254030 -0.259480 -0.262240 -0.265040 -0.270150 -0.274740 -0.277000 -0.279620 -0.282090 -0.280460 -0.276580 -0.274020 -0.272240 -0.269410 -0.266220 -0.264550 -0.264440 -0.265160 -0.265010 -0.262860 -0.260020 -0.257300 -0.255430 -0.255820 -0.257170 -0.255910 -0.252530 -0.252060 -0.252570 -0.247530 -0.238750 -0.232570 -0.229020 -0.223790 -0.218380 -0.217290 -0.219730 -0.222000 -0.222000 -0.221160 -0.221510 -0.223430 -0.226590 -0.229410 -0.230590 -0.230370 -0.230080 -0.230320 -0.230340 -0.230210 -0.230260 -0.230390 -0.230260 -0.228470 -0.224110 -0.218810 -0.215090 -0.213070 -0.210780 -0.207860 -0.205420 -0.202470 -0.196480 -0.186900 -0.176260 -0.168330 -0.163590 -0.161560 -0.160310 -0.156130 -0.149250 -0.139810 -0.129570 -0.118120 -0.103850 -0.086399 -0.059461 -0.026076  0.012528  0.059896  0.114910  0.178410  0.240760  0.311330  0.403130  0.513760  0.639380  0.767070  0.905170  1.050600  1.196100  1.354200  1.528800  1.732400  1.949500  2.169100  2.395200  2.618200  2.850400  3.085100  3.326000  3.576800  3.824100  4.082500  4.339000  4.599100  4.871200  5.143600  5.410200  5.631800  5.823200  6.025900  6.249600  6.476300  6.672200  6.856400  7.033200  7.176900  7.283200  7.345400  7.369000  7.355400  7.307600  7.231600  7.118300  6.968000  6.785500  6.547800  6.249800  5.896000  5.514700  5.127600  4.715500  4.269100  3.754100  3.153500  2.455500  1.638400  0.693960 -0.375630 -1.462100 -2.409800 -3.105900 -3.526100 -3.735400 -3.788300 -3.750500 -3.677100 -3.590000 -3.494400 -3.379300 -3.262400 -3.154800 -3.064100 -2.997600 -2.941500 -2.876900 -2.792200 -2.694500 -2.594100 -2.499700 -2.400600 -2.298000 -2.182300 -2.051300 -1.916400 -1.787200 -1.681600 
Shapelet   2  -0.651300 -0.666400 -0.681980 -0.711780 -0.702040 -0.651920 -0.625680 -0.632690 -0.634430 -0.631180 -0.632980 -0.631750 -0.634040 -0.633250 -0.611360 -0.591900 -0.599080 -0.605310 -0.586580 -0.565650 -0.563700 -0.560850 -0.531910 -0.484110 -0.451550 -0.464500 -0.495010 -0.487950 -0.464190 -0.462590 -0.461510 -0.464600 -0.488860 -0.498610 -0.498290 -0.520470 -0.535800 -0.531570 -0.516950 -0.461770 -0.395320 -0.402080 -0.465420 -0.498180 -0.478940 -0.446920 -0.430160 -0.429490 -0.425250 -0.394500 -0.362580 -0.374500 -0.397340 -0.394850 -0.406620 -0.431620 -0.433490 
Shapelet   3   0.169420  0.268520  0.334590  0.400660  0.466720  0.499760  0.532790  0.466720  0.433690  0.499760  0.565820  0.664920  0.598860  0.466720  0.334590  0.367620  0.499760  0.565820  0.532790  0.499760  0.466720  0.433690  0.433690  0.499760  0.532790  0.565820  0.466720  0.466720  0.598860  0.664920  0.598860  0.532790  0.499760  0.433690  0.466720  0.532790  0.565820  0.565820  0.499760  0.367620  0.235490  0.334590  0.499760  0.532790  0.532790  0.565820  0.598860  0.598860  0.565820  0.565820  0.565820  0.532790  0.532790  0.466720  0.466720  0.499760  0.532790  0.532790  0.499760  0.499760  0.532790  0.598860  0.598860  0.565820  0.565820  0.499760  0.400660  0.433690  0.466720  0.532790  0.532790  0.565820  0.598860  0.532790  0.532790  0.532790  0.565820  0.565820  0.499760  0.466720  0.466720  0.466720  0.466720  0.532790  0.532790  0.499760  0.499760  0.499760  0.532790  0.598860  0.664920  0.598860  0.466720  0.433690  0.565820  0.565820  0.532790  0.532790  0.466720  0.400660  0.466720  0.532790  0.631890  0.730990  0.730990  0.697960  0.631890  0.598860  0.631890  0.598860  0.499760  0.466720  0.433690  0.334590  0.433690  0.532790  0.565820  0.532790  0.499760  0.400660  0.367620  0.400660  0.466720  0.532790  0.664920  0.664920  0.565820  0.532790  0.565820  0.631890  0.565820  0.532790  0.433690  0.367620  0.367620  0.367620  0.367620  0.367620  0.400660  0.367620  0.466720  0.532790  0.598860  0.664920  0.565820  0.532790  0.565820  0.466720  0.400660  0.433690  0.532790  0.532790  0.466720  0.367620  0.433690  0.532790  0.631890  0.664920  0.532790  0.433690  0.367620  0.334590  0.334590  0.400660  0.433690  0.433690  0.400660  0.433690  0.433690  0.367620  0.367620  0.301550  0.334590  0.367620  0.400660  0.499760  0.532790  0.400660  0.235490  0.235490  0.235490  0.301550  0.466720  0.565820  0.565820  0.499760  0.499760  0.433690  0.499760  0.499760  0.433690  0.400660  0.400660  0.301550  0.235490  0.268520  0.433690  0.532790  0.466720  0.433690  0.400660  0.400660  0.433690  0.466720  0.433690  0.367620  0.301550  0.301550  0.301550  0.400660  0.433690  0.367620  0.367620  0.400660  0.400660  0.433690  0.433690  0.466720  0.367620  0.301550  0.400660  0.466720  0.466720  0.499760  0.499760  0.565820  0.532790  0.499760  0.499760  0.466720  0.466720  0.433690  0.400660  0.367620  0.400660  0.367620  0.301550  0.334590  0.334590  0.400660  0.499760  0.499760  0.499760  0.565820  0.598860  0.532790  0.433690  0.400660  0.433690  0.466720  0.499760  0.466720  0.400660  0.334590  0.301550  0.301550  0.400660  0.400660  0.367620  0.367620  0.433690  0.532790  0.697960  0.797060  0.664920  0.532790  0.532790  0.532790  0.532790  0.532790  0.466720  0.433690  0.400660  0.400660  0.367620  0.301550  0.301550  0.400660  0.367620  0.301550  0.301550  0.367620  0.532790  0.598860  0.565820  0.598860  0.598860  0.565820  0.499760  0.499760  0.400660  0.334590  0.334590  0.367620  0.433690  0.499760  0.499760  0.466720  0.433690  0.367620  0.334590  0.334590  0.499760  0.631890  0.565820  0.400660  0.301550  0.367620  0.532790  0.565820  0.565820  0.532790  0.499760  0.400660  0.400660  0.433690  0.433690  0.466720  0.433690  0.367620  0.301550  0.301550  0.301550  0.367620  0.367620  0.400660  0.433690  0.367620  0.334590  0.301550  0.334590  0.367620  0.334590  0.334590  0.433690  0.532790  0.532790  0.400660  0.334590  0.301550  0.301550  0.268520  0.334590  0.367620  0.466720  0.499760  0.532790  0.565820  0.565820  0.532790  0.565820  0.532790  0.367620  0.301550  0.268520  0.301550  0.235490  0.235490  0.268520  0.301550  0.367620  0.400660  0.466720  0.532790  0.433690  0.400660  0.400660  0.466720  0.499760  0.466720  0.400660  0.367620  0.301550  0.235490  0.202450  0.235490  0.235490  0.235490  0.235490  0.301550  0.301550  0.334590  0.334590  0.367620  0.433690  0.499760  0.499760  0.433690  0.367620  0.367620  0.400660  0.400660  0.334590  0.334590  0.268520  0.202450  0.268520  0.334590  0.367620  0.334590  0.301550  0.334590  0.367620  0.367620  0.400660  0.466720  0.433690  0.466720  0.400660  0.367620  0.367620  0.334590  0.268520  0.235490  0.268520  0.268520  0.235490  0.202450  0.235490  0.334590  0.367620  0.367620  0.334590  0.367620  0.367620  0.367620  0.301550  0.334590  0.367620  0.367620  0.301550  0.235490  0.169420  0.202450  0.268520  0.367620  0.367620  0.400660  0.433690  0.367620  0.334590  0.367620  0.367620  0.400660  0.334590  0.334590  0.367620  0.268520  0.235490  0.268520  0.268520  0.202450  0.136390  0.070320  0.070320  0.103350  0.136390  0.070320  0.037286  0.004253  0.070320  0.037286  0.037286  0.037286 -0.028781 -0.061815 -0.160920 -0.160920  0.004253  0.037286 -0.061815 -0.094848 -0.226980 -0.293050 -0.326080 -0.260020 -0.260020 -0.293050 -0.326080 -0.326080 -0.425180 -0.458220 -0.458220 -0.326080 -0.293050 -0.326080 -0.359120 -0.491250 -0.524280 -0.524280 -0.458220 -0.392150 -0.458220 -0.524280 -0.590350 -0.656420 -0.656420 
Shapelet   4  -1.007600 -1.064500 -1.177000 -1.281700 -1.326900 -1.367200 -1.412500 -1.432600 -1.466600 -1.513900 -1.516300 -1.507100 -1.551700 -1.605800 -1.594900 -1.534900 -1.468400 -1.389100 -1.294100 -1.203300 -1.115400 -1.024100 -0.932890 -0.851640 -0.793470 -0.731980 -0.620040 -0.475140 -0.357160 -0.289400 -0.257670 -0.237850 -0.193460 -0.112300 -0.061111 -0.061077 -0.009765  0.089168  0.125020  0.154110  0.249740  0.309790  0.313440  0.357560  0.419870  0.453040  0.516760  0.623420  0.690770  0.709350  0.745040 


; cmd = /home/grad00/soren885/capstone/ShapeletResearch/Execs/FastShapelet /home/grad00/soren885/capstone/Shapelet_Datasets/UCR_Master/CinC_ECG_torso_TRAIN 4 40 820 1 2 10 manhattan 1 1 10 ./replications/CinC_ECG_torso/CinC_ECG_torso_manhattan_normed_CID_REP07_tree.txt ./replications/CinC_ECG_torso/CinC_ECG_torso_manhattan_normed_CID_REP07_time.txt
; time =>  1726.954  13.914  65.705   4.969 1636.111 
; command = /home/grad00/soren885/capstone/ShapeletResearch/Execs/Classify /home/grad00/soren885/capstone/Shapelet_Datasets/UCR_Master/CinC_ECG_torso_TEST 4 1380 manhattan 1 1 ./replications/CinC_ECG_torso/CinC_ECG_torso_manhattan_normed_CID_REP07_tree.txt ./replications/CinC_ECG_torso/CinC_ECG_torso_manhattan_normed_CID_REP07_acc.txt
; accuracy= 64.638   Correct:892 , Wrong: 488


;   == Confusion Matrix ==
;   real |   3    2    4    1 
;   -----+------------------------
;   p  3 | 153   58   15   20 
;   p  2 | 156  259   13  152 
;   p  4 |  28   19  303    1 
;   p  1 |   6    6   14  177 

