;Shapelet Tree 

;random seed:1508728482, rand()=1998091287, rand()=2135710531
;command = /home/grad00/soren885/capstone/ShapeletResearch/Execs/FastShapelet /home/grad00/soren885/capstone/Shapelet_Datasets/UCR_Master/CinC_ECG_torso_TRAIN 4 40 820 1 2 10 euclidean 0 1 10 ./replications/CinC_ECG_torso/CinC_ECG_torso_euclidean_normed_NOCID_REP25_tree.txt ./replications/CinC_ECG_torso/CinC_ECG_torso_euclidean_normed_NOCID_REP25_time.txt 

;Local Class:   0  1  2  3 
;Real  Class:   1  3  4  2 

;Node ID class   obj  pos  len  dist_th 
TreeSize: 10 
NonL  1    --     25   56  729  28.4458 ==>   0  12   0  13  /   5   0  10   0 
NonL  2    --      0  533   51   1.2527 ==>   0  12   0   2  /   0   0   0  11 
NonL  3    --      1  907  129   1.5548 ==>   0   0  10   0  /   5   0   0   0 
NonL  4    --      4   83  639   5.7843 ==>   0   0   0   2  /   0  12   0   0 
Leaf  5     2    
Leaf  6     4    
Leaf  7     1    
Leaf  8     2    
Leaf  9     3    

;Shapelet id   <data>
Shapelet   1   0.631450  0.592730  0.565370  0.553710  0.548870  0.561010  0.597580  0.635140  0.642100  0.613160  0.573030  0.553580  0.557950  0.555340  0.543550  0.560810  0.600830  0.614830  0.611200  0.628110  0.641450  0.622760  0.611940  0.634930  0.652900  0.639940  0.608110  0.566930  0.530930  0.520860  0.524780  0.522090  0.530270  0.566490  0.605200  0.613290  0.586040  0.544430  0.522510  0.534830  0.552940  0.553110  0.555740  0.574470  0.586770  0.583950  0.583480  0.582510  0.566280  0.548380  0.550770  0.560260  0.553550  0.545560  0.562350  0.582820  0.573550  0.554360  0.553560  0.551640  0.533490  0.511640  0.472360  0.409760  0.376890  0.395830  0.413380  0.408320  0.416510  0.440150  0.456410  0.478530  0.516110  0.543690  0.554690  0.571350  0.586290  0.566910  0.526640  0.524720  0.576070  0.622090  0.620370  0.603320  0.611130  0.623670  0.604970  0.567600  0.542600  0.527270  0.507530  0.494600  0.496080  0.490620  0.470270  0.460150  0.466980  0.457630  0.420650  0.402770  0.440760  0.496920  0.511070  0.484990  0.465910  0.475920  0.495160  0.490120  0.456020  0.433990  0.450650  0.466780  0.449020  0.438600  0.473300  0.511100  0.501640  0.463020  0.434320  0.417300  0.401620  0.402870  0.433610  0.467950  0.474200  0.461650  0.461860  0.479960  0.495540  0.498530  0.493200  0.477080  0.444650  0.409820  0.397770  0.413260  0.433880  0.433350  0.410990  0.404670  0.447460  0.508560  0.525130  0.500090  0.496010  0.528260  0.541550  0.506230  0.469310  0.474400  0.496030  0.499130  0.494990  0.496610  0.488090  0.467180  0.448640  0.433520  0.430720  0.451530  0.466750  0.450270  0.437080  0.455130  0.473040  0.468590  0.454010  0.434490  0.425760  0.454720  0.492770  0.480680  0.434600  0.422150  0.448750  0.466360  0.462680  0.466300  0.486090  0.495780  0.477710  0.449760  0.437340  0.438290  0.436280  0.434860  0.441120  0.439130  0.419500  0.407910  0.423600  0.448550  0.464280  0.470360  0.465530  0.460910  0.472590  0.473930  0.431100  0.377590  0.364730  0.390610  0.442460  0.512330  0.553610  0.539760  0.524130  0.543780  0.560900  0.554900  0.551690  0.554080  0.552010  0.560930  0.580610  0.587290  0.582750  0.582860  0.582450  0.581590  0.594490  0.613330  0.617890  0.607160  0.589040  0.574630  0.583090  0.607730  0.607980  0.571410  0.528980  0.497630  0.473280  0.467500  0.485920  0.502040  0.497170  0.489350  0.498180  0.516940  0.528780  0.526820  0.513300  0.493510  0.474170  0.463260  0.464190  0.475290  0.496330  0.528210  0.567930  0.604340  0.615850  0.585250  0.527720  0.490140  0.505850  0.552940  0.582080  0.583940  0.583180  0.571600  0.529880  0.496490  0.509600  0.524320  0.492900  0.449990  0.437100  0.437560  0.437430  0.452110  0.472680  0.471210  0.457500  0.466220  0.491740  0.490360  0.452390  0.423280  0.435090  0.461300  0.464580  0.447210  0.423390  0.385640  0.338460  0.321100  0.353050  0.400480  0.432370  0.452310  0.467790  0.484040  0.502540  0.501770  0.475130  0.466720  0.490450  0.489500  0.449660  0.427250  0.436650  0.441710  0.434940  0.420200  0.385400  0.351250  0.355530  0.384330  0.402390  0.415450  0.434730  0.434610  0.403410  0.389870  0.432870  0.488010  0.501180  0.495570  0.500040  0.487650  0.465540  0.489670  0.553540  0.600030  0.613970  0.599170  0.548770  0.497860  0.489300  0.495500  0.478290  0.454570  0.439440  0.421160  0.406710  0.407710  0.403970  0.383430  0.369150  0.381020  0.414460  0.450910  0.467530  0.454710  0.436940  0.446190  0.477670  0.497230  0.481200  0.439130  0.398100  0.375060  0.374950  0.384240  0.380470  0.362340  0.347350  0.333150  0.305780  0.290600  0.300610  0.286070  0.219530  0.142320  0.076040 -0.007233 -0.092758 -0.125980 -0.108070 -0.089167 -0.095089 -0.117620 -0.150510 -0.185200 -0.188770 -0.144470 -0.091622 -0.067835 -0.056103 -0.038289 -0.019474  0.019480  0.083608  0.117640  0.111340  0.132830  0.191160  0.241000  0.298210  0.387630  0.463050  0.509460  0.575240  0.642830  0.654480  0.639280  0.673340  0.758620  0.842990  0.902370  0.944120  0.979590  1.003400  0.995380  0.952920  0.891000  0.808150  0.704790  0.621580  0.590880  0.581380  0.561190  0.554390  0.575470  0.606670  0.644030  0.682950  0.707010  0.738650  0.815580  0.903870  0.946910  0.972100  1.025100  1.083900  1.108500  1.108000  1.110000  1.112500  1.097600  1.057900  1.005000  0.955410  0.917320  0.897420  0.900430  0.926830  0.966340  0.989870  0.991600  1.009500  1.050400  1.049600  0.991570  0.957770  0.964260  0.944420  0.905520  0.907760  0.944080  0.991470  1.072400  1.160300  1.193500  1.198800  1.232600  1.270400  1.262100  1.206600  1.127500  1.052500  1.000700  0.949580  0.883760  0.845210  0.847840  0.836810  0.796240  0.790710  0.845410  0.896840  0.900960  0.881860  0.862800  0.821770  0.748610  0.690520  0.685780  0.724580  0.779930  0.818330  0.813650  0.801880  0.843810  0.900490  0.881950  0.810740  0.778800  0.797950  0.815970  0.810710  0.786870  0.742070  0.674820  0.586730  0.501480  0.466270  0.492880  0.533370  0.549470  0.565070  0.606600  0.651530  0.673260  0.686740  0.718290  0.754150  0.764310  0.757890  0.768830  0.804890  0.839730  0.859520  0.876400  0.895520  0.907400  0.907170  0.891740  0.846800  0.774860  0.715180  0.697460  0.708560  0.727440  0.756120  0.797480  0.834410  0.856140  0.872800  0.884980  0.870100  0.819270  0.762750  0.732030  0.726580  0.729230  0.719080  0.681380  0.626630  0.587540  0.583440  0.601660  0.613860  0.596630  0.554980  0.525290  0.532580  0.561720  0.581440  0.579100  0.557520  0.522590  0.490730  0.485450  0.511990  0.548350  0.572450  0.584220  0.587190  0.577140  0.558630  0.541580  0.523650  0.503690  0.493870  0.495750  0.489520  0.466690  0.444210  0.436200  0.436310  0.441830  0.463910  0.491490  0.493010  0.473520  0.460700  0.442190  0.402110  0.377870  0.395100  0.413770  0.409080  0.414350  0.439060  0.434890  0.385800  0.350230  0.361820  0.378900  0.386770  0.424770  0.467290  0.435670  0.352960  0.312540  0.327070  0.359970  0.410030  0.462480  0.469750  0.426780  0.373100  0.327890  0.294580  0.292410  0.325250  0.352200  0.340160  0.320510  0.331480  0.350050  0.349150  0.353720  0.373860  0.380540  0.378610  0.405680  0.447460  0.449250  0.414890  0.406090  0.448950  0.508270  0.558070  0.616580  0.689020  0.750880  0.793390  0.827580  0.858670  0.873530  0.875000  0.874900  0.860740  0.834760  0.833700  0.893120  0.994450  1.127700  1.325900  1.539900  1.697600  1.831700  2.000700  2.172400  2.320700  2.505900  2.720700  2.901600  3.070900  3.263200  3.443800  3.593400  3.744100  3.865300  3.886700  3.820300  3.733200  3.627100  3.464900  3.280300  3.142400  3.065400  2.961400  2.777300  2.546400  2.282500  1.946600  1.504000  1.031300  0.577500  0.083059 -0.510050 -1.194700 -1.929700 -2.683500 -3.374400 -3.943800 -4.422900 -4.829900 -5.132100 -5.298000 -5.345800 -5.270000 -5.033200 -4.681600 -4.347700 -4.097900 -3.863600 -3.600200 -3.347900 -3.136000 -2.966500 -2.872400 -2.787700 -2.561200 -2.158700 -1.680400 -1.229900 -0.821150 -0.475200 -0.194690  0.059111  0.251590  0.289300  0.095377 -0.271190 -0.704920 -1.164100 -1.579500 -1.864500 -1.994700 -2.033400 -2.017200 -1.952000 -1.931000 -2.003300 -2.093400 -2.106200 -2.072500 -2.080500 -2.105600 -2.084800 -2.046700 -2.068400 -2.146000 
Shapelet   2  -1.007600 -1.064500 -1.177000 -1.281700 -1.326900 -1.367200 -1.412500 -1.432600 -1.466600 -1.513900 -1.516300 -1.507100 -1.551700 -1.605800 -1.594900 -1.534900 -1.468400 -1.389100 -1.294100 -1.203300 -1.115400 -1.024100 -0.932890 -0.851640 -0.793470 -0.731980 -0.620040 -0.475140 -0.357160 -0.289400 -0.257670 -0.237850 -0.193460 -0.112300 -0.061111 -0.061077 -0.009765  0.089168  0.125020  0.154110  0.249740  0.309790  0.313440  0.357560  0.419870  0.453040  0.516760  0.623420  0.690770  0.709350  0.745040 
Shapelet   3  -0.460540 -0.478780 -0.486060 -0.478000 -0.479640 -0.498090 -0.507180 -0.506130 -0.518540 -0.539450 -0.555600 -0.571460 -0.588280 -0.606040 -0.624260 -0.632440 -0.630750 -0.630010 -0.629370 -0.631350 -0.646310 -0.667460 -0.681920 -0.697020 -0.719810 -0.729480 -0.711740 -0.695420 -0.711050 -0.746120 -0.771170 -0.781800 -0.798820 -0.822620 -0.828300 -0.827460 -0.844080 -0.855000 -0.853590 -0.866330 -0.884820 -0.901940 -0.934420 -0.960610 -0.954370 -0.946440 -0.962340 -0.978820 -0.991240 -1.016500 -1.028200 -1.021900 -1.045500 -1.079800 -1.079500 -1.081000 -1.106200 -1.123200 -1.135400 -1.155900 -1.172300 -1.187200 -1.205800 -1.222400 -1.238200 -1.256000 -1.273300 -1.280500 -1.272300 -1.273100 -1.303000 -1.334400 -1.349400 -1.365200 -1.378400 -1.376400 -1.372300 -1.379500 -1.400300 -1.420700 -1.423500 -1.426100 -1.442900 -1.450900 -1.450900 -1.466000 -1.479700 -1.474300 -1.470700 -1.483800 -1.502500 -1.518500 -1.535100 -1.552700 -1.569500 -1.579700 -1.569700 -1.550700 -1.555900 -1.580800 -1.597400 -1.600600 -1.597000 -1.598100 -1.603500 -1.591100 -1.574800 -1.586300 -1.602600 -1.600000 -1.597000 -1.598600 -1.599800 -1.600900 -1.591000 -1.574700 -1.571200 -1.574900 -1.574700 -1.573500 -1.573100 -1.574900 -1.575600 -1.565300 -1.546500 -1.529100 -1.512400 -1.497300 -1.496800 
Shapelet   4  -0.135290 -0.137020 -0.142330 -0.147560 -0.148990 -0.148290 -0.150000 -0.154280 -0.156860 -0.156410 -0.156930 -0.161420 -0.167160 -0.169800 -0.169620 -0.169820 -0.170570 -0.169360 -0.166520 -0.165090 -0.165500 -0.165600 -0.165700 -0.168040 -0.171220 -0.170670 -0.165620 -0.160940 -0.160330 -0.161800 -0.161610 -0.160470 -0.161310 -0.162360 -0.160080 -0.157070 -0.158170 -0.161180 -0.161700 -0.161180 -0.161370 -0.160740 -0.161000 -0.165290 -0.170840 -0.173500 -0.175170 -0.178040 -0.179650 -0.178180 -0.175490 -0.173210 -0.170630 -0.167530 -0.165490 -0.165310 -0.165640 -0.165580 -0.165600 -0.165570 -0.165320 -0.165780 -0.166010 -0.164130 -0.161420 -0.159200 -0.156050 -0.153010 -0.152840 -0.152820 -0.151190 -0.153430 -0.159430 -0.161430 -0.160850 -0.165040 -0.170180 -0.170230 -0.170450 -0.173650 -0.173500 -0.169780 -0.168850 -0.170330 -0.170200 -0.169540 -0.169870 -0.169990 -0.169880 -0.169940 -0.169680 -0.169810 -0.170470 -0.169450 -0.166600 -0.165100 -0.165480 -0.165600 -0.165600 -0.165920 -0.164730 -0.161860 -0.160290 -0.161380 -0.163780 -0.166690 -0.169340 -0.170350 -0.169890 -0.169590 -0.170040 -0.170170 -0.168830 -0.165820 -0.162580 -0.161080 -0.161150 -0.161240 -0.161220 -0.161550 -0.161020 -0.158480 -0.155950 -0.156420 -0.159310 -0.161350 -0.161420 -0.161230 -0.161310 -0.160910 -0.161290 -0.163730 -0.166200 -0.166170 -0.163960 -0.161330 -0.160320 -0.161740 -0.162190 -0.159190 -0.156940 -0.157680 -0.156290 -0.152720 -0.154420 -0.160430 -0.162560 -0.161070 -0.160970 -0.161160 -0.160900 -0.164120 -0.170250 -0.173840 -0.174100 -0.174080 -0.174380 -0.174200 -0.173990 -0.174340 -0.174470 -0.173150 -0.170140 -0.166940 -0.165370 -0.165380 -0.165680 -0.165590 -0.165460 -0.165590 -0.165620 -0.165480 -0.165520 -0.165690 -0.165530 -0.165230 -0.166160 -0.168920 -0.172200 -0.174230 -0.174500 -0.174040 -0.174040 -0.174430 -0.174220 -0.173820 -0.174440 -0.174750 -0.172740 -0.170070 -0.169410 -0.169970 -0.169940 -0.169940 -0.170010 -0.168260 -0.165200 -0.164350 -0.167010 -0.169690 -0.168870 -0.165320 -0.162180 -0.160980 -0.161010 -0.162320 -0.165550 -0.168890 -0.169900 -0.169610 -0.171020 -0.173980 -0.176590 -0.179160 -0.181940 -0.183270 -0.182900 -0.182720 -0.182730 -0.180580 -0.176530 -0.174190 -0.175580 -0.178830 -0.181630 -0.183380 -0.183310 -0.180920 -0.178470 -0.178090 -0.178650 -0.178580 -0.178520 -0.178540 -0.176750 -0.173160 -0.170330 -0.169820 -0.169950 -0.168230 -0.164840 -0.161940 -0.160950 -0.161180 -0.161360 -0.161210 -0.161010 -0.161740 -0.164510 -0.169320 -0.174480 -0.177720 -0.178620 -0.178510 -0.178550 -0.178520 -0.178330 -0.178630 -0.178710 -0.178130 -0.178440 -0.179250 -0.178050 -0.177230 -0.181430 -0.186780 -0.186280 -0.182180 -0.179550 -0.177280 -0.174560 -0.173810 -0.174200 -0.173970 -0.174570 -0.174720 -0.171860 -0.169890 -0.172280 -0.174610 -0.174200 -0.175250 -0.178410 -0.179330 -0.178210 -0.178160 -0.178890 -0.178630 -0.176810 -0.173450 -0.170400 -0.169970 -0.170100 -0.167810 -0.165370 -0.165240 -0.165640 -0.165520 -0.165810 -0.165510 -0.164760 -0.166620 -0.169590 -0.168880 -0.165590 -0.163110 -0.160190 -0.157070 -0.158720 -0.165080 -0.169530 -0.169720 -0.169480 -0.170480 -0.170170 -0.167560 -0.165350 -0.165260 -0.165800 -0.165720 -0.164460 -0.160790 -0.155390 -0.151270 -0.148990 -0.146420 -0.143940 -0.142130 -0.137730 -0.129740 -0.122200 -0.118210 -0.116050 -0.112730 -0.107700 -0.101780 -0.096944 -0.094193 -0.091573 -0.086802 -0.080323 -0.075528 -0.073165 -0.070111 -0.065122 -0.059801 -0.054841 -0.048271 -0.039904 -0.032114 -0.024802 -0.017068 -0.009943 -0.005899 -0.005536 -0.006089 -0.006114 -0.005825 -0.005882 -0.006141 -0.005884 -0.005985 -0.005574 -0.002349  0.003137  0.007529  0.009679  0.013314  0.018835  0.022818  0.024308  0.022500  0.017490  0.012115  0.010515  0.011382  0.010920  0.011789  0.014531  0.016896  0.019800  0.026080  0.035247  0.042821  0.050144  0.061503  0.077679  0.097282  0.117650  0.137800  0.155350  0.167870  0.176230  0.181810  0.184430  0.181250  0.174260  0.171040  0.173400  0.175550  0.172670  0.167160  0.162480  0.157710  0.151540  0.141630  0.127090  0.111760  0.098408  0.085849  0.070716  0.053504  0.035640  0.016885  0.000150 -0.013058 -0.024467 -0.037390 -0.051744 -0.062881 -0.069018 -0.071744 -0.074295 -0.075700 -0.070404 -0.058353 -0.044916 -0.034668 -0.027680 -0.023282 -0.020915 -0.018161 -0.017419 -0.022665 -0.030912 -0.038028 -0.046885 -0.059981 -0.071681 -0.078340 -0.083455 -0.088468 -0.091438 -0.092893 -0.095529 -0.100160 -0.105480 -0.110740 -0.115610 -0.120650 -0.126350 -0.131010 -0.132270 -0.130450 -0.130080 -0.133300 -0.135380 -0.133260 -0.130680 -0.130640 -0.131610 -0.134490 -0.142890 -0.154420 -0.162830 -0.167630 -0.172830 -0.178950 -0.183100 -0.185390 -0.188490 -0.191140 -0.191310 -0.191500 -0.194010 -0.196190 -0.195840 -0.196470 -0.199910 -0.203060 -0.204940 -0.209470 -0.218850 -0.229240 -0.237360 -0.244620 -0.250430 -0.252120 -0.251730 -0.253630 -0.256420 -0.256540 -0.256040 -0.256270 -0.254770 -0.251720 -0.250680 -0.252830 -0.255450 -0.257580 -0.260480 -0.263480 -0.264990 -0.264860 -0.264730 -0.264830 -0.264380 -0.265130 -0.267750 -0.270010 -0.269440 -0.266770 -0.264450 -0.262030 -0.258880 -0.256420 -0.255920 -0.256170 -0.255790 -0.256750 -0.259480 -0.263290 -0.269300 -0.275560 -0.277960 -0.277550 -0.278470 -0.277930 -0.272540 -0.268510 -0.268880 -0.268220 -0.265100 -0.264060 -0.264780 -0.262460 -0.258510 -0.256410 -0.254580 -0.251450 -0.250140 -0.254030 -0.259480 -0.262240 -0.265040 -0.270150 -0.274740 -0.277000 -0.279620 -0.282090 -0.280460 -0.276580 -0.274020 -0.272240 -0.269410 -0.266220 -0.264550 -0.264440 -0.265160 -0.265010 -0.262860 -0.260020 -0.257300 -0.255430 -0.255820 -0.257170 -0.255910 -0.252530 -0.252060 -0.252570 -0.247530 -0.238750 -0.232570 -0.229020 -0.223790 -0.218380 -0.217290 -0.219730 -0.222000 -0.222000 -0.221160 -0.221510 -0.223430 -0.226590 -0.229410 -0.230590 -0.230370 -0.230080 -0.230320 -0.230340 -0.230210 -0.230260 -0.230390 -0.230260 -0.228470 -0.224110 -0.218810 -0.215090 -0.213070 -0.210780 -0.207860 -0.205420 -0.202470 -0.196480 -0.186900 -0.176260 -0.168330 -0.163590 -0.161560 -0.160310 -0.156130 -0.149250 -0.139810 -0.129570 -0.118120 -0.103850 -0.086399 -0.059461 -0.026076  0.012528  0.059896  0.114910  0.178410  0.240760  0.311330  0.403130  0.513760  0.639380  0.767070  0.905170  1.050600  1.196100  1.354200  1.528800  1.732400  1.949500  2.169100  2.395200  2.618200 


; cmd = /home/grad00/soren885/capstone/ShapeletResearch/Execs/FastShapelet /home/grad00/soren885/capstone/Shapelet_Datasets/UCR_Master/CinC_ECG_torso_TRAIN 4 40 820 1 2 10 euclidean 0 1 10 ./replications/CinC_ECG_torso/CinC_ECG_torso_euclidean_normed_NOCID_REP25_tree.txt ./replications/CinC_ECG_torso/CinC_ECG_torso_euclidean_normed_NOCID_REP25_time.txt
; time =>  1223.051  17.038  72.426   5.625 1121.254 
; command = /home/grad00/soren885/capstone/ShapeletResearch/Execs/Classify /home/grad00/soren885/capstone/Shapelet_Datasets/UCR_Master/CinC_ECG_torso_TEST 4 1380 euclidean 0 1 ./replications/CinC_ECG_torso/CinC_ECG_torso_euclidean_normed_NOCID_REP25_tree.txt ./replications/CinC_ECG_torso/CinC_ECG_torso_euclidean_normed_NOCID_REP25_acc.txt
; accuracy= 74.710   Correct:1031 , Wrong: 349


;   == Confusion Matrix ==
;   real |   3    2    4    1 
;   -----+------------------------
;   p  3 | 193   95    0    4 
;   p  2 | 134  211    0   42 
;   p  4 |   5    4  325    2 
;   p  1 |  11   32   20  302 

