;Shapelet Tree 

;random seed:1503434660, rand()=715247754, rand()=574751254
;command = /home/grad00/soren885/capstone/ShapeletResearch/Execs/FastShapelet /home/grad00/soren885/capstone/Shapelet_Datasets/UCR_Master/CinC_ECG_torso_TRAIN 4 40 820 1 2 10 euclidean 0 0 10 ./replications/CinC_ECG_torso/CinC_ECG_torso_euclidean_unnormed_NOCID_REP10_tree.txt ./replications/CinC_ECG_torso/CinC_ECG_torso_euclidean_unnormed_NOCID_REP10_time.txt 

;Local Class:   0  1  2  3 
;Real  Class:   1  3  4  2 

;Node ID class   obj  pos  len  dist_th 
TreeSize: 20 
NonL  1    --     12   56  701  37.3965 ==>   5  12   0  13  /   0   0  10   0 
NonL  2    --     21  1013  291  11.6041 ==>   0  12   0  13  /   5   0   0   0 
Leaf  3     4    
NonL  4    --      4  1147  419   4.7483 ==>   0   0   0  11  /   0  12   0   2 
Leaf  5     1    
Leaf  8     2    
NonL  9    --      4  866  751  22.3019 ==>   0  12   0   0  /   0   0   0   2 
Leaf 18     3    
Leaf 19     2    

;Shapelet id   <data>
Shapelet   1   0.096396  0.076060  0.061634  0.059754  0.059916  0.059132  0.059847  0.060276  0.059150  0.059180  0.061287  0.059531  0.048548  0.036203  0.036166  0.048661  0.059537  0.060932  0.059475  0.059762  0.059008  0.059308  0.067948  0.082865  0.095213  0.104750  0.117270  0.132140  0.140100  0.131010  0.110540  0.099720  0.102880  0.099028  0.084361  0.080093  0.082316  0.065787  0.039729  0.033561  0.042212  0.042199  0.036153  0.039068  0.050828  0.061595  0.062430  0.056063  0.058179  0.072592  0.079493  0.067643  0.055073  0.057643  0.069062  0.080997  0.093349  0.102870  0.102170  0.090738  0.079603  0.085348  0.108260  0.121590  0.110170  0.099772  0.110680  0.120490  0.108170  0.089661  0.080469  0.071375  0.056550  0.044025  0.034716  0.021944  0.013138  0.021731  0.036755  0.038612  0.037395  0.054868  0.081262  0.095189  0.103210  0.116160  0.123680  0.119870  0.117170  0.121290  0.121720  0.116600  0.119160  0.132050  0.140990  0.140490  0.140160  0.140410  0.131940  0.117390  0.105350  0.094026  0.081690  0.076937  0.079931  0.072483  0.049529  0.037437  0.055302  0.080309  0.084460  0.077718  0.078299  0.081286  0.079861  0.078741  0.080177  0.080694  0.075972  0.061574  0.049633  0.065770  0.104570  0.127680  0.121930  0.114490  0.121070  0.124580  0.113510  0.101160  0.099417  0.099561  0.089603  0.073802  0.061959  0.056990  0.059722  0.070828  0.082530  0.082664  0.074968  0.078696  0.100980  0.123880  0.125840  0.110330  0.099874  0.106610  0.122540  0.135550  0.142150  0.141180  0.131880  0.118470  0.105610  0.097143  0.097995  0.103970  0.099432  0.084308  0.081017  0.094853  0.104170  0.100060  0.096941  0.101050  0.101670  0.096895  0.098871  0.110810  0.121140  0.121490  0.118470  0.119390  0.121020  0.119520  0.118540  0.121170  0.121110  0.112490  0.098898  0.085964  0.077119  0.077222  0.088069  0.099786  0.101890  0.098945  0.099020  0.100580  0.099915  0.099057  0.100050  0.100230  0.099140  0.099581  0.100740  0.099356  0.097805  0.103970  0.117230  0.124890  0.118710  0.105970  0.095947  0.084180  0.067712  0.059759  0.068964  0.084961  0.096782  0.103340  0.100200  0.086559  0.079638  0.091565  0.110070  0.119450  0.120370  0.119670  0.119460  0.120180  0.120030  0.118900  0.120130  0.121100  0.118380  0.118710  0.123100  0.119280  0.113140  0.128610  0.155420  0.158030  0.139970  0.134020  0.142500  0.143130  0.132550  0.120680  0.109130  0.096771  0.084392  0.075978  0.078375  0.090745  0.100760  0.101110  0.098931  0.099516  0.100040  0.099760  0.099741  0.099428  0.099062  0.104840  0.120360  0.135550  0.140170  0.139380  0.141310  0.140070  0.135900  0.143280  0.157250  0.159380  0.159110  0.171890  0.179800  0.167370  0.155640  0.158790  0.162130  0.159550  0.159560  0.158030  0.144470  0.127270  0.119550  0.111380  0.091350  0.077978  0.093373  0.119730  0.125620  0.117360  0.117350  0.122680  0.120270  0.116440  0.121440  0.123700  0.111700  0.100080  0.106380  0.122310  0.134080  0.145860  0.158190  0.161810  0.159750  0.159790  0.159350  0.159060  0.162570  0.159650  0.146060  0.138980  0.140690  0.133600  0.120240  0.117040  0.120520  0.120190  0.119890  0.120040  0.117300  0.121640  0.134740  0.141830  0.140140  0.139920  0.139530  0.137240  0.144610  0.157810  0.161290  0.159920  0.161200  0.157770  0.156350  0.174440  0.199850  0.213350  0.222830  0.225150  0.204690  0.180890  0.178570  0.178330  0.164020  0.161510  0.177720  0.184770  0.178900  0.177940  0.180890  0.179920  0.184230  0.202140  0.226530  0.247540  0.258820  0.260350  0.260120  0.261250  0.257740  0.245270  0.230740  0.220390  0.210450  0.194770  0.170530  0.147490  0.139720  0.142230  0.138310  0.134400  0.150940  0.176550  0.188970  0.202820  0.237210  0.275290  0.296820  0.309290  0.320720  0.323230  0.318460  0.319110  0.319670  0.300440  0.263630  0.232130  0.210260  0.179980  0.142560  0.115590  0.094258  0.060127  0.016044 -0.016796 -0.038068 -0.065850 -0.101770 -0.136110 -0.171420 -0.217190 -0.265140 -0.309620 -0.365020 -0.426180 -0.466880 -0.481430 -0.490440 -0.507520 -0.530370 -0.565610 -0.618820 -0.679510 -0.735340 -0.782390 -0.825770 -0.859190 -0.869580 -0.857890 -0.833140 -0.810840 -0.801370 -0.807350 -0.824040 -0.845110 -0.876190 -0.913010 -0.942750 -0.963050 -0.982630 -1.015600 -1.063800 -1.122100 -1.182000 -1.226000 -1.244200 -1.232400 -1.201400 -1.165200 -1.129100 -1.092900 -1.046400 -0.991720 -0.946850 -0.919230 -0.897770 -0.871770 -0.856200 -0.859710 -0.865430 -0.860690 -0.847520 -0.837260 -0.826140 -0.805260 -0.781160 -0.764460 -0.759980 -0.749560 -0.719570 -0.682960 -0.660920 -0.663460 -0.675970 -0.687170 -0.699880 -0.713440 -0.722240 -0.722330 -0.718800 -0.705840 -0.674030 -0.636930 -0.610280 -0.595140 -0.583930 -0.572390 -0.560630 -0.555160 -0.566970 -0.580660 -0.575030 -0.561480 -0.552170 -0.532980 -0.495800 -0.462130 -0.442560 -0.421160 -0.394730 -0.370910 -0.348320 -0.324280 -0.306150 -0.300200 -0.292050 -0.266030 -0.228900 -0.192220 -0.157410 -0.129510 -0.115610 -0.092651 -0.042385  0.000273  0.012189  0.028243  0.066939  0.094473  0.099647  0.109050  0.122760  0.123170  0.114500  0.101800  0.079945  0.055635  0.042294  0.038439  0.038891  0.046922  0.061700  0.074699  0.083261  0.095200  0.116640  0.141140  0.156920  0.158640  0.145800  0.127660  0.119860  0.121240  0.118040  0.115640  0.132800  0.158420  0.165530  0.158190  0.157380  0.162040  0.160370  0.161980  0.185160  0.222700  0.250620  0.259620  0.259980  0.260070  0.259600  0.260540  0.260940  0.254040  0.239700  0.225530  0.218250  0.218030  0.225590  0.239360  0.252500  0.262420  0.273600  0.288890  0.299610  0.299810  0.301000  0.312180  0.327390  0.338430  0.348270  0.362050  0.375040  0.382320  0.381600  0.373100  0.359400  0.345360  0.338540  0.339160  0.341210  0.340270  0.338020  0.342150  0.354090  0.369040  0.379770  0.381730  0.379600  0.379060  0.381110  0.380650  0.377540  0.381510  0.393660  0.403350  0.401540  0.396680  0.400930  0.404480  0.394410  0.381180  0.384620  0.400680  0.412910  0.424180  0.436910  0.442480  0.440530  0.439190  0.440420  0.440060  0.440760  0.440800  0.432080  0.417200  0.403960  0.397760  0.399070  0.408120  0.421740  0.425250  0.413620  0.401350  0.399950  0.400120  0.396510  0.404550  0.418060  0.419020  0.420240  0.439710  0.467960  0.490560  0.516350  0.539400  0.542690  0.540820  0.552180  0.568730  0.579110  0.594450  0.627080  0.674170  0.724610  0.771590  0.816920  0.865700  0.909580  0.923350  0.909350  0.883150  0.839960  0.755360  0.606460  0.416430  0.206720 -0.009432 -0.228770 -0.461570 -0.695590 -0.941970 -1.208500 -1.495000 -1.803600 -2.136300 -2.521100 -2.928600 -3.319900 -3.691400 -4.038800 -4.360200 -4.639100 -4.899200 -5.164100 -5.438400 -5.741700 -6.051500 -6.339200 -6.588900 -6.791400 -6.953200 -7.060100 -7.124100 -7.152300 -7.120900 -7.021100 -6.845800 -6.628900 -6.404000 -6.193500 -6.024400 -5.861300 -5.679400 -5.502600 -5.372300 -5.304400 -5.275700 -5.308300 -5.401200 -5.475500 -5.468800 -5.364000 -5.215600 -5.053000 
Shapelet   2  -0.100820 -0.113700 -0.165750 -0.203230 -0.225180 -0.242940 -0.232370 -0.204400 -0.209830 -0.235980 -0.237830 -0.232140 -0.234120 -0.214530 -0.187480 -0.205420 -0.254620 -0.268200 -0.229020 -0.180490 -0.159010 -0.171210 -0.213160 -0.266450 -0.303700 -0.325940 -0.340690 -0.331230 -0.323740 -0.362300 -0.402870 -0.420320 -0.464290 -0.500020 -0.477450 -0.451270 -0.427460 -0.378700 -0.364710 -0.407950 -0.472980 -0.541940 -0.563340 -0.536370 -0.534610 -0.526730 -0.476740 -0.467440 -0.504440 -0.524900 -0.554840 -0.606680 -0.650780 -0.686830 -0.695920 -0.690990 -0.719560 -0.724640 -0.654990 -0.596010 -0.602850 -0.645590 -0.711930 -0.771070 -0.772150 -0.738900 -0.731680 -0.754790 -0.779520 -0.800460 -0.823230 -0.835790 -0.824760 -0.801920 -0.780000 -0.758730 -0.757180 -0.783730 -0.794740 -0.770770 -0.744290 -0.725880 -0.723640 -0.762330 -0.800480 -0.776040 -0.730850 -0.735710 -0.761370 -0.751480 -0.723090 -0.702710 -0.668300 -0.618370 -0.596920 -0.603860 -0.591190 -0.567120 -0.565000 -0.562600 -0.561670 -0.577090 -0.549460 -0.477770 -0.442960 -0.423860 -0.376030 -0.344560 -0.325260 -0.277820 -0.240090 -0.232690 -0.209770 -0.162510 -0.126480 -0.106260 -0.082856 -0.065820 -0.068481 -0.061552 -0.020059  0.024499  0.046893  0.074544  0.120780  0.165990  0.210510  0.255060  0.283570  0.297910  0.296610  0.273440  0.260510  0.287030  0.344770  0.421160  0.486610  0.502630  0.486210  0.489050  0.525930  0.576950  0.620090  0.647220  0.660660  0.658670  0.652350  0.664330  0.687960  0.709630  0.730310  0.726630  0.694590  0.702810  0.780420  0.846980  0.852540  0.853910  0.880120  0.887370  0.887160  0.925390  0.968990  0.986760  1.008500  1.021400  0.991680  0.955650  0.964850  1.016700  1.070100  1.090800  1.087700  1.084800  1.090300  1.117700  1.166400  1.188300  1.156000  1.120100  1.128100  1.152700  1.156300  1.150100  1.153100  1.168600  1.205000  1.251400  1.264100  1.235700  1.219400  1.240500  1.251500  1.220600  1.188600  1.187900  1.186800  1.162400  1.152400  1.186200  1.219500  1.206800  1.186700  1.203100  1.231900  1.252800  1.259400  1.237100  1.219700  1.224000  1.203300  1.186800  1.228000  1.263800  1.252200  1.230100  1.203100  1.186600  1.206800  1.223700  1.219600  1.236600  1.263100  1.251400  1.223000  1.220000  1.218900  1.195000  1.181400  1.186500  1.168900  1.132800  1.120400  1.122300  1.114100  1.121800  1.147900  1.146200  1.118300  1.096600  1.065500  1.017600  0.989320  0.988570  0.987720  0.985410  0.990740  0.987180  0.981880  1.003200  1.021300  1.001200  0.964810  0.915930  0.863700  0.861630  0.891360  0.892770  0.885080  0.889460  0.889870  0.882600  0.850070  0.801640  0.777070  0.752180  0.722790  0.740310  0.754860  0.708250  0.677800  0.692460  0.675000  0.623240  0.586990  0.546880  0.477390  0.420640  0.418490  0.437660  0.420300  0.373770  0.341290  0.324230  0.302510  0.277390  0.258700  0.257480  0.268840  0.255450  0.209320 
Shapelet   4   0.131160  0.134760  0.140550  0.143400  0.145750  0.150640  0.157160  0.161950  0.164320  0.167160  0.169690  0.171780  0.174520  0.178850  0.184560  0.189420  0.194660  0.199910  0.203520  0.205610  0.205620  0.205110  0.204960  0.206780  0.209850  0.210270  0.209400  0.209210  0.210200  0.209990  0.208310  0.210620  0.215920  0.219970  0.222280  0.226020  0.232260  0.237230  0.242090  0.247460  0.251200  0.253060  0.252740  0.253030  0.255710  0.260960  0.266050  0.268140  0.271180  0.274080  0.273340  0.270440  0.268870  0.270680  0.273060  0.275990  0.278680  0.278700  0.278940  0.281100  0.284230  0.283750  0.279790  0.278970  0.281210  0.283880  0.286350  0.290850  0.296370  0.298570  0.301560  0.306990  0.311520  0.313450  0.314610  0.318810  0.321640  0.321180  0.321800  0.325690  0.331750  0.336510  0.342030  0.347340  0.348390  0.347760  0.347490  0.347190  0.344320  0.341460  0.343960  0.348930  0.353370  0.355730  0.357900  0.360980  0.361160  0.360310  0.360200  0.361130  0.361000  0.359190  0.361740  0.367070  0.371010  0.373470  0.375890  0.378210  0.377730  0.378530  0.381720  0.384150  0.387050  0.389510  0.391450  0.394030  0.399250  0.404160  0.402240  0.397990  0.395600  0.393890  0.391250  0.387620  0.386170  0.383720  0.379650  0.378080  0.379920  0.382520  0.380180  0.374920  0.370210  0.365010  0.360070  0.356360  0.357060  0.360250  0.360430  0.356030  0.347770  0.340950  0.336150  0.331290  0.326390  0.320640  0.316010  0.310940  0.305180  0.300730  0.297290  0.295520  0.293040  0.289190  0.283990  0.277600  0.274060  0.273630  0.274920  0.274910  0.271220  0.265090  0.256980  0.250080  0.245360  0.240840  0.235510  0.229520  0.225650  0.220810  0.212510  0.205710  0.202690  0.199790  0.192010  0.182630  0.175890  0.170240  0.165600  0.160670  0.154200  0.146420  0.138370  0.131000  0.123000  0.116180  0.111520  0.106900  0.101510  0.095671  0.092032  0.089802  0.086006  0.080388  0.074327  0.070728  0.068423  0.064752  0.059226  0.053132  0.049350  0.046884  0.044168  0.041813  0.039765  0.036292  0.028888  0.019692  0.012402  0.008292  0.006893  0.004888  0.000463 -0.004787 -0.008328 -0.010303 -0.012940 -0.015481 -0.017934 -0.020955 -0.023105 -0.024895 -0.029217 -0.037140 -0.044606 -0.048768 -0.051484 -0.053946 -0.056461 -0.059269 -0.061732 -0.062539 -0.062004 -0.063787 -0.069094 -0.074256 -0.075731 -0.074933 -0.076605 -0.081384 -0.086529 -0.091142 -0.096552 -0.102420 -0.106090 -0.108410 -0.111640 -0.113770 -0.112210 -0.108660 -0.106120 -0.103860 -0.101130 -0.100100 -0.101080 -0.101430 -0.100260 -0.100450 -0.103090 -0.105340 -0.107250 -0.111770 -0.117210 -0.118830 -0.118100 -0.120090 -0.123410 -0.123330 -0.120280 -0.118120 -0.118020 -0.118070 -0.117890 -0.119050 -0.122060 -0.125440 -0.126750 -0.124530 -0.120080 -0.117980 -0.120170 -0.122620 -0.122670 -0.122420 -0.122530 -0.121790 -0.122620 -0.127460 -0.132870 -0.135170 -0.135490 -0.135360 -0.135050 -0.135840 -0.138500 -0.141490 -0.143840 -0.146310 -0.148980 -0.151610 -0.153510 -0.152920 -0.150110 -0.148150 -0.148230 -0.148190 -0.148110 -0.150110 -0.152840 -0.153290 -0.152210 -0.152350 -0.153270 -0.152550 -0.150070 -0.147470 -0.145070 -0.141170 -0.135520 -0.131360 -0.131520 -0.134380 -0.136030 -0.135460 -0.134910 -0.135530 -0.135750 -0.134880 -0.135130 -0.136380 -0.134930 -0.131610 -0.131660 -0.134710 -0.137010 -0.139960 -0.143660 -0.143170 -0.140050 -0.140120 -0.139660 -0.134180 -0.130740 -0.133870 -0.136490 -0.135420 -0.136460 -0.140760 -0.143520 -0.144660 -0.147730 -0.151610 -0.152550 -0.151970 -0.153930 -0.156680 -0.156830 -0.157100 -0.159860 -0.161590 -0.161170 -0.162540 -0.165680 -0.168010 -0.171330 -0.176740 -0.180960 -0.182780 -0.184870 -0.188010 -0.190560 -0.192810 -0.195530 -0.196780 -0.195360 -0.194670 -0.197660 -0.200130 -0.198000 -0.195690 -0.197830 -0.201680 -0.203930 -0.206230 -0.208860 -0.209330 -0.208330 -0.208420 -0.209260 -0.208720 -0.206220 -0.203790 -0.203690 -0.206070 -0.208610 -0.209300 -0.208360 -0.206020 -0.201800 -0.196450 -0.192460 -0.191440 -0.191710 -0.190640 -0.187800 -0.184770 -0.182610 -0.180250 -0.177160 -0.174590 -0.173790 -0.174210 -0.174320 -0.174130 -0.174240 -0.173410 -0.170020 -0.166130 -0.165970 
Shapelet   9  -2.232000 -2.158000 -2.086800 -2.008300 -1.913500 -1.812500 -1.714900 -1.622800 -1.541200 -1.470600 -1.406500 -1.349100 -1.296900 -1.250300 -1.214000 -1.184800 -1.156900 -1.131400 -1.105600 -1.075500 -1.044800 -1.015100 -0.987990 -0.970840 -0.960570 -0.948940 -0.937850 -0.926920 -0.914220 -0.904230 -0.889210 -0.860300 -0.830230 -0.804740 -0.776430 -0.754430 -0.744920 -0.734980 -0.722320 -0.715810 -0.714790 -0.715310 -0.715650 -0.711410 -0.697440 -0.673790 -0.650640 -0.638290 -0.631610 -0.623270 -0.617290 -0.614120 -0.609770 -0.606810 -0.603140 -0.594950 -0.589100 -0.585910 -0.580670 -0.579830 -0.580170 -0.572690 -0.566420 -0.563340 -0.555140 -0.550360 -0.551550 -0.545930 -0.535980 -0.529320 -0.524050 -0.523560 -0.528460 -0.530020 -0.527000 -0.523460 -0.519300 -0.516280 -0.517310 -0.520980 -0.523740 -0.523330 -0.519850 -0.515100 -0.511930 -0.513870 -0.520150 -0.523240 -0.519690 -0.516080 -0.517400 -0.521300 -0.523030 -0.517880 -0.508790 -0.505200 -0.506220 -0.505880 -0.506450 -0.506320 -0.499430 -0.491120 -0.489250 -0.492250 -0.496900 -0.500570 -0.500770 -0.500030 -0.500600 -0.498310 -0.489300 -0.477960 -0.474930 -0.481320 -0.483600 -0.478630 -0.478940 -0.483660 -0.483640 -0.484450 -0.489340 -0.487710 -0.477180 -0.466380 -0.458280 -0.452030 -0.449640 -0.449720 -0.448800 -0.449740 -0.451260 -0.444240 -0.432210 -0.426930 -0.426960 -0.427000 -0.426930 -0.426520 -0.427040 -0.424950 -0.414050 -0.404070 -0.406590 -0.413360 -0.415740 -0.416120 -0.412870 -0.403520 -0.394690 -0.392190 -0.393110 -0.393260 -0.391780 -0.386660 -0.375570 -0.363630 -0.358980 -0.359300 -0.357310 -0.352890 -0.345910 -0.335670 -0.330770 -0.334680 -0.337290 -0.336370 -0.336760 -0.333320 -0.323970 -0.318890 -0.321930 -0.325340 -0.325260 -0.325210 -0.324820 -0.318000 -0.305670 -0.295670 -0.288120 -0.282210 -0.287090 -0.299770 -0.302530 -0.295770 -0.291810 -0.289380 -0.284610 -0.277370 -0.267650 -0.262630 -0.263240 -0.260180 -0.257230 -0.261310 -0.264190 -0.262590 -0.262640 -0.262070 -0.255520 -0.244070 -0.232940 -0.228890 -0.232800 -0.238210 -0.240300 -0.236810 -0.228510 -0.222630 -0.222840 -0.223790 -0.223170 -0.223320 -0.222010 -0.215970 -0.208140 -0.202980 -0.200030 -0.196290 -0.191850 -0.188750 -0.185240 -0.178340 -0.170840 -0.167060 -0.166900 -0.166110 -0.158470 -0.147060 -0.144690 -0.149480 -0.146220 -0.135870 -0.128690 -0.120280 -0.106560 -0.098971 -0.100400 -0.097016 -0.088720 -0.087003 -0.087138 -0.082899 -0.079540 -0.073960 -0.061956 -0.052015 -0.046358 -0.038579 -0.030203 -0.023114 -0.011467  0.003099  0.009104  0.008164  0.015073  0.030281  0.041300  0.045853  0.049234  0.053002  0.058756  0.068623  0.080138  0.091102  0.103000  0.114340  0.124390  0.138020  0.153530  0.163380  0.168280  0.172090  0.175300  0.180210  0.188210  0.198040  0.212130  0.231970  0.247960  0.252130  0.256080  0.270350  0.283770  0.290400  0.302710  0.319390  0.325350  0.327920  0.344100  0.363440  0.372000  0.379350  0.387260  0.387080  0.389690  0.403040  0.415740  0.424510  0.432280  0.438420  0.448970  0.465340  0.480720  0.494570  0.505770  0.512830  0.520980  0.528760  0.531760  0.537720  0.550760  0.563000  0.571570  0.579570  0.586760  0.594450  0.607420  0.623720  0.632790  0.631240  0.631230  0.641580  0.653320  0.657670  0.659640  0.664740  0.674050  0.687690  0.698760  0.702450  0.705470  0.710200  0.715800  0.725870  0.732950  0.731540  0.734900  0.744200  0.747800  0.751510  0.761210  0.769050  0.773690  0.778290  0.783890  0.794500  0.806630  0.811200  0.810830  0.812270  0.815200  0.818520  0.823650  0.833210  0.845780  0.851830  0.847790  0.842820  0.840420  0.838610  0.842320  0.852160  0.862730  0.873160  0.880240  0.882880  0.887600  0.891400  0.890080  0.892490  0.897070  0.893210  0.888380  0.891650  0.895460  0.896770  0.903290  0.914620  0.921280  0.919220  0.914110  0.912670  0.913970  0.913520  0.912450  0.914130  0.917450  0.919480  0.919510  0.921640  0.929450  0.936990  0.940130  0.942990  0.941500  0.932580  0.929660  0.937490  0.945180  0.948520  0.947300  0.942480  0.941170  0.941930  0.937810  0.932830  0.930460  0.929410  0.932700  0.936480  0.932580  0.926540  0.924880  0.921480  0.912100  0.900730  0.892270  0.888240  0.884670  0.880200  0.877880  0.872630  0.860630  0.850580  0.844680  0.836720  0.830040  0.828730  0.828660  0.827130  0.821540  0.809770  0.799000  0.793960  0.786740  0.774470  0.765030  0.757950  0.745560  0.729200  0.713870  0.700740  0.691200  0.683740  0.675710  0.668910  0.661640  0.650670  0.639680  0.628690  0.613800  0.599460  0.588500  0.575170  0.559120  0.547550  0.542900  0.538610  0.527240  0.511030  0.497600  0.486540  0.474710  0.463970  0.452810  0.440140  0.430360  0.419410  0.402850  0.390730  0.384090  0.370890  0.355570  0.348740  0.343860  0.332720  0.317370  0.303470  0.294880  0.287710  0.276930  0.265320  0.254140  0.243930  0.239630  0.236260  0.227690  0.222530  0.219410  0.208320  0.198750  0.195990  0.189570  0.181540  0.174440  0.162740  0.153120  0.146260  0.131810  0.118350  0.116140  0.112320  0.100360  0.093534  0.094788  0.090656  0.078492  0.066742  0.055024  0.043662  0.040792  0.042762  0.038158  0.029177  0.024461  0.025221  0.028914  0.031514  0.026862  0.015384  0.005206 -0.001788 -0.009572 -0.016272 -0.019428 -0.020396 -0.019013 -0.019136 -0.028172 -0.041810 -0.047928 -0.044796 -0.042065 -0.047091 -0.055622 -0.061589 -0.069580 -0.079601 -0.081764 -0.081521 -0.089026 -0.094523 -0.093274 -0.093459 -0.092053 -0.087720 -0.087097 -0.088014 -0.092549 -0.104860 -0.111290 -0.104990 -0.099158 -0.099815 -0.104160 -0.111720 -0.118450 -0.121360 -0.124660 -0.128860 -0.127350 -0.119570 -0.114350 -0.115710 -0.117130 -0.113960 -0.110200 -0.109710 -0.110600 -0.110160 -0.109610 -0.111630 -0.115750 -0.117240 -0.113740 -0.110150 -0.110130 -0.109430 -0.104490 -0.097056 -0.090011 -0.087507 -0.091076 -0.094564 -0.093125 -0.089167 -0.086769 -0.087535 -0.088369 -0.086460 -0.087624 -0.095340 -0.101140 -0.098636 -0.088795 -0.073098 -0.058866 -0.056491 -0.063965 -0.070714 -0.071757 -0.068712 -0.064689 -0.060988 -0.057374 -0.053287 -0.046362 -0.037930 -0.036853 -0.044753 -0.049939 -0.047699 -0.047063 -0.048514 -0.041360 -0.028723 -0.024123 -0.025279 -0.021930 -0.018055 -0.019904 -0.020892 -0.018082 -0.020137 -0.025289 -0.023221 -0.019522 -0.020337 -0.016267 -0.007524 -0.003432 -0.002021 -0.003059 -0.007799 -0.006077  0.004323  0.012638  0.015219  0.013937  0.009874  0.007406  0.009001  0.012459  0.018208  0.026783  0.031678  0.027255  0.018859  0.014559  0.014002  0.014464  0.017870  0.023436  0.025582  0.024888  0.029144  0.038339  0.042694  0.041422  0.043104  0.044044  0.036824  0.030761  0.031235  0.028916  0.025358  0.029088  0.034794  0.037300  0.041040  0.044416  0.041531  0.037150  0.037386  0.036163  0.031675  0.032822  0.037634  0.037637  0.034402  0.030215  0.026188  0.024040  0.017944  0.009350  0.011790  0.021800  0.021950  0.013015  0.008099  0.008539  0.006942  0.001447 -0.002607 -0.000963  0.004246  0.008247  0.007137  0.001502  0.001384  0.008539  0.006491 -0.005953 -0.012484 -0.014990 -0.019226 -0.019338 -0.020808 -0.025392 -0.020424 -0.012919 -0.017553 -0.026818 -0.032339 -0.036119 -0.037209 -0.036817 -0.040807 -0.048932 -0.054907 -0.054536 -0.047789 -0.041009 -0.045550 -0.059378 -0.065514 -0.064518 -0.070564 -0.077781 -0.076775 -0.075239 -0.076878 -0.076700 -0.071575 -0.061555 -0.058135 -0.071196 -0.085248 -0.083263 -0.075858 -0.078383 -0.086521 -0.091243 -0.094565 -0.098465 -0.099499 -0.098647 -0.098731 -0.100820 -0.107550 -0.115200 


; cmd = /home/grad00/soren885/capstone/ShapeletResearch/Execs/FastShapelet /home/grad00/soren885/capstone/Shapelet_Datasets/UCR_Master/CinC_ECG_torso_TRAIN 4 40 820 1 2 10 euclidean 0 0 10 ./replications/CinC_ECG_torso/CinC_ECG_torso_euclidean_unnormed_NOCID_REP10_tree.txt ./replications/CinC_ECG_torso/CinC_ECG_torso_euclidean_unnormed_NOCID_REP10_time.txt
; time =>  295.976  14.647  71.478   5.288 198.375 
; command = /home/grad00/soren885/capstone/ShapeletResearch/Execs/Classify /home/grad00/soren885/capstone/Shapelet_Datasets/UCR_Master/CinC_ECG_torso_TEST 4 1380 euclidean 0 0 ./replications/CinC_ECG_torso/CinC_ECG_torso_euclidean_unnormed_NOCID_REP10_tree.txt ./replications/CinC_ECG_torso/CinC_ECG_torso_euclidean_unnormed_NOCID_REP10_acc.txt
; accuracy= 60.652   Correct:837 , Wrong: 543


;   == Confusion Matrix ==
;   real |   3    2    4    1 
;   -----+------------------------
;   p  3 | 225   59   77   53 
;   p  2 | 103  258   13  104 
;   p  4 |   7    7  252   91 
;   p  1 |   8   18    3  102 

