;Shapelet Tree 

;random seed:1503372250, rand()=706191762, rand()=1904864440
;command = /home/grad00/soren885/capstone/ShapeletResearch/Execs/FastShapelet /home/grad00/soren885/capstone/Shapelet_Datasets/UCR_Master/CinC_ECG_torso_TRAIN 4 40 820 1 2 10 manhattan 1 0 10 ./replications/CinC_ECG_torso/CinC_ECG_torso_manhattan_unnormed_CID_REP05_tree.txt ./replications/CinC_ECG_torso/CinC_ECG_torso_manhattan_unnormed_CID_REP05_time.txt 

;Local Class:   0  1  2  3 
;Real  Class:   1  3  4  2 

;Node ID class   obj  pos  len  dist_th 
TreeSize: 24 
NonL  1    --     12   49  719  735.4726 ==>   3  12   0  13  /   2   0  10   0 
NonL  2    --      9  1014  389  123.3944 ==>   1   1   0  12  /   2  11   0   1 
NonL  3    --      1  861  735  3116.3035 ==>   0   0  10   0  /   2   0   0   0 
NonL  4    --     10  326  451  242.5725 ==>   1   1   0   0  /   0   0   0  12 
NonL  5    --      5  1001  467  651.1331 ==>   0  11   0   0  /   2   0   0   1 
Leaf  6     4    
Leaf  7     1    
NonL  8    --      0  681  635  258.5018 ==>   0   1   0   0  /   1   0   0   0 
Leaf  9     2    
Leaf 10     3    
NonL 11    --      0  609   29  214.9774 ==>   2   0   0   0  /   0   0   0   1 
Leaf 16     3    
Leaf 17     1    
Leaf 22     1    
Leaf 23     2    

;Shapelet id   <data>
Shapelet   1   0.060449  0.059443  0.070271  0.081136  0.079584  0.084446  0.098635  0.096396  0.076060  0.061634  0.059754  0.059916  0.059132  0.059847  0.060276  0.059150  0.059180  0.061287  0.059531  0.048548  0.036203  0.036166  0.048661  0.059537  0.060932  0.059475  0.059762  0.059008  0.059308  0.067948  0.082865  0.095213  0.104750  0.117270  0.132140  0.140100  0.131010  0.110540  0.099720  0.102880  0.099028  0.084361  0.080093  0.082316  0.065787  0.039729  0.033561  0.042212  0.042199  0.036153  0.039068  0.050828  0.061595  0.062430  0.056063  0.058179  0.072592  0.079493  0.067643  0.055073  0.057643  0.069062  0.080997  0.093349  0.102870  0.102170  0.090738  0.079603  0.085348  0.108260  0.121590  0.110170  0.099772  0.110680  0.120490  0.108170  0.089661  0.080469  0.071375  0.056550  0.044025  0.034716  0.021944  0.013138  0.021731  0.036755  0.038612  0.037395  0.054868  0.081262  0.095189  0.103210  0.116160  0.123680  0.119870  0.117170  0.121290  0.121720  0.116600  0.119160  0.132050  0.140990  0.140490  0.140160  0.140410  0.131940  0.117390  0.105350  0.094026  0.081690  0.076937  0.079931  0.072483  0.049529  0.037437  0.055302  0.080309  0.084460  0.077718  0.078299  0.081286  0.079861  0.078741  0.080177  0.080694  0.075972  0.061574  0.049633  0.065770  0.104570  0.127680  0.121930  0.114490  0.121070  0.124580  0.113510  0.101160  0.099417  0.099561  0.089603  0.073802  0.061959  0.056990  0.059722  0.070828  0.082530  0.082664  0.074968  0.078696  0.100980  0.123880  0.125840  0.110330  0.099874  0.106610  0.122540  0.135550  0.142150  0.141180  0.131880  0.118470  0.105610  0.097143  0.097995  0.103970  0.099432  0.084308  0.081017  0.094853  0.104170  0.100060  0.096941  0.101050  0.101670  0.096895  0.098871  0.110810  0.121140  0.121490  0.118470  0.119390  0.121020  0.119520  0.118540  0.121170  0.121110  0.112490  0.098898  0.085964  0.077119  0.077222  0.088069  0.099786  0.101890  0.098945  0.099020  0.100580  0.099915  0.099057  0.100050  0.100230  0.099140  0.099581  0.100740  0.099356  0.097805  0.103970  0.117230  0.124890  0.118710  0.105970  0.095947  0.084180  0.067712  0.059759  0.068964  0.084961  0.096782  0.103340  0.100200  0.086559  0.079638  0.091565  0.110070  0.119450  0.120370  0.119670  0.119460  0.120180  0.120030  0.118900  0.120130  0.121100  0.118380  0.118710  0.123100  0.119280  0.113140  0.128610  0.155420  0.158030  0.139970  0.134020  0.142500  0.143130  0.132550  0.120680  0.109130  0.096771  0.084392  0.075978  0.078375  0.090745  0.100760  0.101110  0.098931  0.099516  0.100040  0.099760  0.099741  0.099428  0.099062  0.104840  0.120360  0.135550  0.140170  0.139380  0.141310  0.140070  0.135900  0.143280  0.157250  0.159380  0.159110  0.171890  0.179800  0.167370  0.155640  0.158790  0.162130  0.159550  0.159560  0.158030  0.144470  0.127270  0.119550  0.111380  0.091350  0.077978  0.093373  0.119730  0.125620  0.117360  0.117350  0.122680  0.120270  0.116440  0.121440  0.123700  0.111700  0.100080  0.106380  0.122310  0.134080  0.145860  0.158190  0.161810  0.159750  0.159790  0.159350  0.159060  0.162570  0.159650  0.146060  0.138980  0.140690  0.133600  0.120240  0.117040  0.120520  0.120190  0.119890  0.120040  0.117300  0.121640  0.134740  0.141830  0.140140  0.139920  0.139530  0.137240  0.144610  0.157810  0.161290  0.159920  0.161200  0.157770  0.156350  0.174440  0.199850  0.213350  0.222830  0.225150  0.204690  0.180890  0.178570  0.178330  0.164020  0.161510  0.177720  0.184770  0.178900  0.177940  0.180890  0.179920  0.184230  0.202140  0.226530  0.247540  0.258820  0.260350  0.260120  0.261250  0.257740  0.245270  0.230740  0.220390  0.210450  0.194770  0.170530  0.147490  0.139720  0.142230  0.138310  0.134400  0.150940  0.176550  0.188970  0.202820  0.237210  0.275290  0.296820  0.309290  0.320720  0.323230  0.318460  0.319110  0.319670  0.300440  0.263630  0.232130  0.210260  0.179980  0.142560  0.115590  0.094258  0.060127  0.016044 -0.016796 -0.038068 -0.065850 -0.101770 -0.136110 -0.171420 -0.217190 -0.265140 -0.309620 -0.365020 -0.426180 -0.466880 -0.481430 -0.490440 -0.507520 -0.530370 -0.565610 -0.618820 -0.679510 -0.735340 -0.782390 -0.825770 -0.859190 -0.869580 -0.857890 -0.833140 -0.810840 -0.801370 -0.807350 -0.824040 -0.845110 -0.876190 -0.913010 -0.942750 -0.963050 -0.982630 -1.015600 -1.063800 -1.122100 -1.182000 -1.226000 -1.244200 -1.232400 -1.201400 -1.165200 -1.129100 -1.092900 -1.046400 -0.991720 -0.946850 -0.919230 -0.897770 -0.871770 -0.856200 -0.859710 -0.865430 -0.860690 -0.847520 -0.837260 -0.826140 -0.805260 -0.781160 -0.764460 -0.759980 -0.749560 -0.719570 -0.682960 -0.660920 -0.663460 -0.675970 -0.687170 -0.699880 -0.713440 -0.722240 -0.722330 -0.718800 -0.705840 -0.674030 -0.636930 -0.610280 -0.595140 -0.583930 -0.572390 -0.560630 -0.555160 -0.566970 -0.580660 -0.575030 -0.561480 -0.552170 -0.532980 -0.495800 -0.462130 -0.442560 -0.421160 -0.394730 -0.370910 -0.348320 -0.324280 -0.306150 -0.300200 -0.292050 -0.266030 -0.228900 -0.192220 -0.157410 -0.129510 -0.115610 -0.092651 -0.042385  0.000273  0.012189  0.028243  0.066939  0.094473  0.099647  0.109050  0.122760  0.123170  0.114500  0.101800  0.079945  0.055635  0.042294  0.038439  0.038891  0.046922  0.061700  0.074699  0.083261  0.095200  0.116640  0.141140  0.156920  0.158640  0.145800  0.127660  0.119860  0.121240  0.118040  0.115640  0.132800  0.158420  0.165530  0.158190  0.157380  0.162040  0.160370  0.161980  0.185160  0.222700  0.250620  0.259620  0.259980  0.260070  0.259600  0.260540  0.260940  0.254040  0.239700  0.225530  0.218250  0.218030  0.225590  0.239360  0.252500  0.262420  0.273600  0.288890  0.299610  0.299810  0.301000  0.312180  0.327390  0.338430  0.348270  0.362050  0.375040  0.382320  0.381600  0.373100  0.359400  0.345360  0.338540  0.339160  0.341210  0.340270  0.338020  0.342150  0.354090  0.369040  0.379770  0.381730  0.379600  0.379060  0.381110  0.380650  0.377540  0.381510  0.393660  0.403350  0.401540  0.396680  0.400930  0.404480  0.394410  0.381180  0.384620  0.400680  0.412910  0.424180  0.436910  0.442480  0.440530  0.439190  0.440420  0.440060  0.440760  0.440800  0.432080  0.417200  0.403960  0.397760  0.399070  0.408120  0.421740  0.425250  0.413620  0.401350  0.399950  0.400120  0.396510  0.404550  0.418060  0.419020  0.420240  0.439710  0.467960  0.490560  0.516350  0.539400  0.542690  0.540820  0.552180  0.568730  0.579110  0.594450  0.627080  0.674170  0.724610  0.771590  0.816920  0.865700  0.909580  0.923350  0.909350  0.883150  0.839960  0.755360  0.606460  0.416430  0.206720 -0.009432 -0.228770 -0.461570 -0.695590 -0.941970 -1.208500 -1.495000 -1.803600 -2.136300 -2.521100 -2.928600 -3.319900 -3.691400 -4.038800 -4.360200 -4.639100 -4.899200 -5.164100 -5.438400 -5.741700 -6.051500 -6.339200 -6.588900 -6.791400 -6.953200 -7.060100 -7.124100 -7.152300 -7.120900 -7.021100 -6.845800 -6.628900 -6.404000 -6.193500 -6.024400 -5.861300 -5.679400 -5.502600 -5.372300 -5.304400 -5.275700 -5.308300 -5.401200 -5.475500 -5.468800 -5.364000 -5.215600 -5.053000 -4.856900 -4.603500 -4.257500 -3.825200 -3.330000 -2.798600 -2.251500 -1.668700 -1.066200 -0.510170 -0.092059 
Shapelet   2   0.318850  0.320670  0.330600  0.347230  0.358930  0.360300  0.360320  0.361850  0.357060  0.344020  0.335580  0.340040  0.351590  0.362640  0.363530  0.352060  0.340720  0.339380  0.339190  0.327220  0.314260  0.317960  0.333280  0.339880  0.328420  0.314860  0.317240  0.331450  0.340470  0.339950  0.340670  0.341070  0.336760  0.340390  0.354460  0.359370  0.346160  0.330910  0.320680  0.314750  0.323850  0.338750  0.334860  0.320940  0.325070  0.343380  0.355430  0.365520  0.378360  0.382840  0.379890  0.379610  0.378520  0.365230  0.346820  0.340210  0.341820  0.336840  0.323670  0.316520  0.320090  0.322140  0.318890  0.318390  0.322260  0.320670  0.316040  0.322080  0.325520  0.309500  0.298870  0.318650  0.342280  0.342730  0.339730  0.341270  0.330260  0.320060  0.330520  0.343410  0.341490  0.339170  0.340210  0.330420  0.315430  0.304070  0.291810  0.280520  0.277840  0.280480  0.280190  0.280210  0.280510  0.271790  0.257680  0.254550  0.267430  0.279240  0.279210  0.280800  0.292670  0.302890  0.301040  0.302030  0.321330  0.340190  0.335830  0.321890  0.320960  0.320390  0.306680  0.299690  0.302000  0.292000  0.280180  0.289750  0.300580  0.288210  0.274810  0.278840  0.282930  0.279440  0.278460  0.281090  0.280890  0.274000  0.258570  0.242680  0.240850  0.242520  0.226280  0.199720  0.183440  0.178920  0.178340  0.185530  0.199300  0.204300  0.197890  0.196020  0.207450  0.219250  0.220660  0.220090  0.221370  0.215630  0.202270  0.195130  0.201080  0.212520  0.225720  0.238200  0.237950  0.218930  0.200060  0.203930  0.218280  0.215520  0.200280  0.196290  0.200320  0.189090  0.166420  0.159310  0.172000  0.179890  0.167880  0.153930  0.157970  0.167130  0.156800  0.130650  0.115290  0.118240  0.122560  0.119460  0.117550  0.121470  0.121390  0.116000  0.119970  0.133810  0.140560  0.139400  0.142050  0.140430  0.126790  0.119390  0.121550  0.113170  0.100490  0.100740  0.098082  0.083787  0.080163  0.081703  0.061970  0.037938  0.036071  0.040647  0.039053  0.046674  0.060127  0.061238  0.060939  0.074341  0.086172  0.080115  0.065864  0.058662  0.058996  0.060395  0.059873  0.058658  0.060703  0.070949  0.092359  0.117010  0.122190  0.094046  0.054298  0.032524  0.022685  0.007414 -0.000201  0.011444  0.022250  0.020579  0.019815  0.019626  0.008562 -0.002735 -0.001531 -0.002362 -0.019088 -0.037668 -0.038962 -0.026492 -0.013313 -0.001741  0.005588 -0.003531 -0.028121 -0.049398 -0.059284 -0.063409 -0.059439 -0.046472 -0.038556 -0.040291 -0.035594 -0.019717 -0.013111 -0.026527 -0.039608 -0.038324 -0.040176 -0.054618 -0.059589 -0.046024 -0.036617 -0.040016 -0.041190 -0.041043 -0.052118 -0.069181 -0.079611 -0.082416 -0.079685 -0.069503 -0.050962 -0.026202 -0.004876 -0.000761 -0.012659 -0.023150 -0.021983 -0.017929 -0.020436 -0.022877 -0.018709 -0.018071 -0.024841 -0.021228 -0.004767 -0.001902 -0.015982 -0.021297 -0.019760 -0.031402 -0.040177 -0.019160  0.016986  0.038015  0.041445  0.039462  0.038167  0.042778  0.055930  0.066060  0.059137  0.044003  0.039831  0.041443  0.031667  0.019774  0.026909  0.043680  0.044219  0.033668  0.038218  0.054986  0.059145  0.056028  0.068019  0.079978  0.069450  0.059716  0.071844  0.082518  0.079827  0.085856  0.100680  0.103180  0.098128  0.098893  0.100650  0.099813  0.100060  0.099138  0.098104  0.105980  0.119200  0.123390  0.118360  0.116990  0.125550  0.138210  0.150370  0.161560  0.164100  0.153160  0.141000  0.139200  0.139670  0.137420  0.144260  0.157590  0.161110  0.160030  0.169580  0.185030  0.196340  0.207880  0.219790  0.223150  0.217740  0.206150  0.190340  0.180250  0.180670  0.178420  0.165740  0.156190  0.158620  0.168560  0.181660  0.185780  0.171790  0.159540  0.168510  0.180290  0.178790  0.183610  0.197820  0.196300  0.179860  0.167760  0.154150  0.128680  0.111440  0.118830  0.133960  0.141030  0.150760  0.174430  0.198040  0.203920  0.199080 
Shapelet   3   0.476140  0.471580  0.473630  0.477910  0.477400  0.479550  0.484920  0.488990  0.493190  0.495330  0.495410  0.498530  0.502030  0.501580  0.503200  0.511660  0.519660  0.523340  0.526300  0.525180  0.522990  0.530330  0.537640  0.536520  0.540920  0.550420  0.553920  0.559320  0.568780  0.572590  0.574780  0.580470  0.584460  0.587000  0.593060  0.601490  0.609390  0.617620  0.626050  0.631460  0.632720  0.632970  0.638230  0.649550  0.657070  0.659040  0.667840  0.681190  0.686060  0.687370  0.693490  0.701050  0.708780  0.717790  0.725560  0.732800  0.742160  0.750420  0.754850  0.759890  0.767790  0.775910  0.784530  0.792650  0.799240  0.809660  0.822250  0.830430  0.839630  0.852480  0.861710  0.868690  0.877450  0.885380  0.893140  0.901950  0.909580  0.917470  0.926450  0.931200  0.932340  0.938900  0.950630  0.960050  0.969230  0.981290  0.989040  0.993110  1.003800  1.017500  1.022600  1.024900  1.035600  1.048000  1.055500  1.063800  1.071200  1.074600  1.081100  1.090000  1.097800  1.109500  1.120000  1.123400  1.131100  1.147400  1.159400  1.162900  1.167900  1.177500  1.185600  1.192100  1.201900  1.213600  1.223300  1.232500  1.243400  1.254500  1.262600  1.269600  1.276700  1.280300  1.286100  1.300300  1.310600  1.313000  1.322500  1.335400  1.338700  1.342800  1.353800  1.357700  1.356900  1.367100  1.380000  1.383600  1.389800  1.398900  1.398800  1.400700  1.410700  1.415500  1.418100  1.423600  1.426100  1.432000  1.441800  1.445500  1.448200  1.454200  1.457200  1.460600  1.466200  1.469300  1.472700  1.478200  1.481800  1.483200  1.483400  1.482700  1.482900  1.483200  1.482600  1.485100  1.490000  1.490000  1.485200  1.482500  1.483000  1.483500  1.481800  1.478000  1.475700  1.477400  1.477900  1.473700  1.468000  1.460500  1.450600  1.444300  1.442100  1.437600  1.431000  1.423900  1.414700  1.406100  1.399500  1.391100  1.379800  1.368600  1.356100  1.342100  1.332600  1.325000  1.310500  1.294800  1.283000  1.268100  1.251600  1.235800  1.217800  1.204200  1.192800  1.175600  1.161600  1.150500  1.130500  1.110900  1.096200  1.075700  1.056000  1.041500  1.024400  1.008700  0.993070  0.971330  0.953670  0.938230  0.913600  0.889250  0.871520  0.854310  0.840430  0.829200  0.812910  0.795080  0.780320  0.764120  0.746380  0.731990  0.719970  0.707550  0.695730  0.683760  0.670800  0.659470  0.647650  0.631500  0.615810  0.604610  0.593130  0.579380  0.568160  0.560000  0.550040  0.538060  0.525740  0.512490  0.501630  0.493640  0.482570  0.471230  0.466360  0.461920  0.452680  0.444050  0.435510  0.421480  0.407950  0.402600  0.398360  0.389740  0.383830  0.380440  0.372200  0.362450  0.355800  0.347730  0.337970  0.332130  0.328460  0.323400  0.321220  0.321820  0.318910  0.312810  0.304630  0.295070  0.289750  0.286100  0.280530  0.280020  0.279910  0.271570  0.264820  0.261660  0.253440  0.246090  0.243670  0.239650  0.234710  0.231520  0.230940  0.233300  0.230630  0.221700  0.218420  0.219840  0.215620  0.209280  0.207770  0.207960  0.207390  0.208090  0.208210  0.204820  0.200090  0.196310  0.194760  0.196760  0.196370  0.188320  0.181900  0.183920  0.185640  0.180230  0.172010  0.169910  0.173980  0.171670  0.165430  0.169180  0.171640  0.162690  0.158780  0.159670  0.151290  0.144610  0.149270  0.153720  0.153560  0.154220  0.154430  0.151220  0.146720  0.142790  0.138690  0.134680  0.130750  0.126140  0.123290  0.123920  0.124750  0.122690  0.118460  0.113840  0.111050  0.112110  0.113220  0.109590  0.106160  0.106370  0.104100  0.099997  0.099781  0.098904  0.093475  0.088790  0.087529  0.088423  0.092357  0.096269  0.092711  0.084068  0.078750  0.075059  0.070699  0.069979  0.069512  0.065009  0.062802  0.064807  0.064594  0.060826  0.056523  0.052630  0.048641  0.044181  0.040418  0.039464  0.040744  0.040326  0.036257  0.032927  0.034361  0.035496  0.031288  0.028299  0.032108  0.035601  0.033958  0.033352  0.035619  0.033334  0.024908  0.018020  0.016121  0.016156  0.016328  0.016133  0.016103  0.016606  0.015874  0.015921  0.017509  0.014520  0.010311  0.013297  0.016917  0.016276  0.019015  0.023693  0.022479  0.020547  0.024606  0.028296  0.027770  0.029744  0.034433  0.038090  0.043082  0.046303  0.045613  0.048501  0.052435  0.051957  0.054119  0.058849  0.062347  0.069666  0.077362  0.081026  0.085664  0.088197  0.087680  0.091435  0.094245  0.093675  0.099741  0.108500  0.111800  0.115180  0.119050  0.118320  0.116960  0.119420  0.123930  0.128010  0.131710  0.136140  0.137560  0.132980  0.130160  0.134010  0.136900  0.135990  0.135760  0.135800  0.136300  0.140250  0.143640  0.141230  0.136720  0.135470  0.136060  0.135850  0.137790  0.143620  0.147740  0.147750  0.148260  0.148400  0.144490  0.141240  0.141900  0.142260  0.141730  0.142050  0.142000  0.141880  0.142110  0.141820  0.142130  0.142120  0.138490  0.133040  0.130050  0.129760  0.129980  0.130110  0.130230  0.128360  0.123250  0.118600  0.117950  0.117740  0.113510  0.109990  0.113260  0.117820  0.115910  0.110630  0.106790  0.102810  0.099169  0.099713  0.101380  0.098384  0.094366  0.094083  0.093130  0.088565  0.084003  0.080283  0.076313  0.075341  0.075931  0.070102  0.063664  0.066151  0.063642  0.050092  0.044876  0.045990  0.037771  0.031426  0.034871  0.035444  0.031069  0.027611  0.023612  0.018903  0.015464  0.011473  0.006431  0.003918  0.004216  0.004177  0.004435  0.004557  0.001279 -0.003399 -0.007233 -0.011400 -0.015315 -0.019371 -0.021475 -0.016998 -0.013594 -0.020644 -0.029416 -0.031628 -0.034679 -0.041306 -0.043559 -0.042773 -0.046335 -0.049728 -0.049290 -0.051924 -0.055963 -0.055731 -0.057145 -0.062792 -0.066998 -0.068190 -0.067247 -0.067022 -0.070808 -0.074069 -0.073582 -0.075567 -0.081698 -0.085411 -0.085210 -0.086558 -0.091089 -0.092947 -0.090314 -0.091249 -0.096467 -0.097059 -0.097444 -0.105470 -0.111530 -0.109350 -0.105130 -0.102130 -0.103840 -0.108820 -0.108800 -0.110130 -0.118860 -0.123060 -0.121210 -0.121320 -0.121250 -0.121790 -0.122320 -0.117490 -0.116000 -0.120800 -0.121380 -0.122470 -0.127170 -0.124950 -0.120540 -0.121300 -0.121330 -0.122480 -0.127120 -0.128060 -0.127940 -0.133150 -0.135750 -0.130330 -0.127450 -0.131700 -0.133840 -0.133500 -0.137360 -0.140710 -0.139260 -0.138800 -0.140280 -0.139070 -0.135050 -0.130480 -0.127020 -0.126710 -0.130160 -0.134040 -0.133980 -0.132390 -0.134090 -0.134250 -0.129210 -0.127970 -0.132760 -0.134160 -0.133680 -0.138550 -0.144230 -0.145460 -0.145380 -0.145920 -0.144170 -0.139610 -0.137800 -0.141830 -0.145430 -0.145160 -0.146900 -0.151610 -0.152670 -0.148870 -0.145200 -0.144670 -0.147410 -0.152060 -0.156210 -0.159650 -0.164320 -0.168690 -0.169700 -0.169350 -0.169450 -0.168850 -0.170070 -0.174390 -0.178520 -0.182790 -0.186930 -0.187930 -0.186640 -0.182160 -0.175960 -0.176600 -0.181120 -0.183780 -0.191660 -0.199280 -0.195710 -0.193430 -0.199410 -0.200820 -0.197830 -0.199560 -0.203740 -0.207270 -0.211810 -0.216230 -0.217820 -0.217170 -0.217030 -0.217550 -0.217120 -0.216860 -0.219410 -0.224500 -0.228680 -0.229690 -0.229060 -0.229130 -0.229500 -0.228970 -0.229010 -0.231980 -0.237090 -0.240980 -0.241960 -0.239990 -0.235570 -0.233440 -0.237690 -0.241280 -0.237660 -0.233850 -0.235350 -0.239090 -0.243790 -0.247370 -0.247430 -0.247090 -0.247210 -0.246920 -0.247740 -0.246920 -0.246170 -0.250640 -0.253180 -0.252460 -0.256900 -0.258740 -0.253910 
Shapelet   4  -0.083486 -0.083486 -0.079002 -0.083486 -0.083486 -0.074517 -0.061065 -0.056581 -0.056581 -0.056581 -0.052097 -0.047613 -0.043129 -0.047613 -0.056581 -0.074517 -0.079002 -0.070033 -0.070033 -0.070033 -0.074517 -0.079002 -0.070033 -0.061065 -0.056581 -0.043129 -0.038644 -0.056581 -0.065549 -0.065549 -0.056581 -0.056581 -0.056581 -0.056581 -0.061065 -0.065549 -0.065549 -0.065549 -0.061065 -0.061065 -0.070033 -0.070033 -0.061065 -0.061065 -0.061065 -0.061065 -0.056581 -0.043129 -0.038644 -0.052097 -0.061065 -0.052097 -0.047613 -0.052097 -0.065549 -0.079002 -0.083486 -0.087970 -0.083486 -0.079002 -0.070033 -0.070033 -0.079002 -0.087970 -0.074517 -0.047613 -0.034160 -0.034160 -0.034160 -0.038644 -0.052097 -0.052097 -0.056581 -0.056581 -0.052097 -0.052097 -0.056581 -0.056581 -0.038644 -0.034160 -0.038644 -0.047613 -0.052097 -0.056581 -0.056581 -0.052097 -0.043129 -0.056581 -0.065549 -0.070033 -0.056581 -0.052097 -0.056581 -0.061065 -0.061065 -0.061065 -0.056581 -0.047613 -0.056581 -0.052097 -0.052097 -0.047613 -0.052097 -0.056581 -0.052097 -0.047613 -0.038644 -0.029676 -0.025192 -0.034160 -0.038644 -0.043129 -0.043129 -0.038644 -0.043129 -0.061065 -0.065549 -0.061065 -0.052097 -0.047613 -0.047613 -0.043129 -0.034160 -0.038644 -0.047613 -0.034160 -0.020708 -0.016224 -0.016224 -0.007256  0.001713  0.006197  0.019649  0.024133  0.037586  0.042070  0.051038  0.073459  0.095879  0.104850  0.100360  0.104850  0.113820  0.118300  0.127270  0.131750  0.131750  0.136240  0.140720  0.158660  0.181080  0.181080  0.176590  0.181080  0.185560  0.190050  0.190050  0.190050  0.194530  0.194530  0.194530  0.194530  0.207980  0.234890  0.248340  0.257310  0.252820  0.239370  0.230400  0.234890  0.252820  0.266280  0.266280  0.270760  0.270760  0.252820  0.234890  0.216950  0.203500  0.190050  0.176590  0.158660  0.140720  0.127270  0.127270  0.127270  0.104850  0.073459  0.046554  0.006197 -0.029676 -0.061065 -0.087970 -0.101420 -0.123840 -0.146260 -0.173170 -0.191100 -0.213530 -0.222490 -0.222490 -0.209040 -0.195590 -0.186620 -0.177650 -0.191100 -0.209040 -0.231460 -0.235950 -0.235950 -0.240430 -0.244910 -0.231460 -0.222490 -0.213530 -0.218010 -0.218010 -0.213530 -0.204560 -0.191100 -0.168680 -0.141780 -0.110390 -0.092454 -0.083486 -0.087970 -0.083486 -0.079002 -0.070033 -0.056581 -0.047613 -0.034160 -0.029676 -0.025192 -0.038644 -0.070033 -0.083486 -0.092454 -0.110390 -0.132810 -0.146260 -0.150750 -0.155230 -0.155230 -0.141780 -0.123840 -0.105910 -0.114870 -0.141780 -0.155230 -0.150750 -0.150750 -0.155230 -0.168680 -0.164200 -0.150750 -0.146260 -0.137300 -0.132810 -0.128330 -0.123840 -0.123840 -0.123840 -0.128330 -0.110390 -0.101420 -0.092454 -0.083486 -0.074517 -0.079002 -0.092454 -0.096938 -0.092454 -0.083486 -0.087970 -0.096938 -0.105910 -0.105910 -0.083486 -0.061065 -0.056581 -0.061065 -0.074517 -0.083486 -0.070033 -0.070033 -0.070033 -0.056581 -0.052097 -0.065549 -0.056581 -0.056581 -0.056581 -0.052097 -0.043129 -0.047613 -0.056581 -0.061065 -0.070033 -0.092454 -0.132810 -0.168680 -0.231460 -0.307690 -0.361500 -0.401860 -0.482570 -0.585710 -0.679870 -0.765070 -0.827850 -0.868210 -0.881660 -0.854750 -0.760590 -0.617100 -0.401860 -0.164200 -0.038644 -0.061065 -0.271820 -0.679870 -1.182100 -1.617100 -2.020600 -2.585600 -3.182000 -3.751500 -4.312000 -4.989100 -5.715500 -6.316400 -6.755900 -7.024900 -7.190800 -7.329800 -7.437400 -7.455400 -7.388100 -7.334300 -7.338800 -7.361200 -7.361200 -7.267100 -7.137000 -6.926300 -6.675100 -6.459900 -6.222200 -5.980100 -5.755900 -5.576500 -5.455500 -5.343400 -5.141600 -4.868000 -4.603500 -4.316500 -4.016100 -3.711100 -3.442100 -3.249300 -3.105800 -2.975700 -2.760500 -2.424200 -2.052000 -1.697800 -1.357000 -1.029600 -0.738170 -0.491540 -0.294240 -0.141780 -0.025192  0.046554  0.095879  0.136240  0.167630  0.190050  0.207980  0.234890  0.252820  0.266280  0.284210  0.306630  0.338020  0.360440  0.382860  0.396320  0.405280  0.409770  0.427700  0.454610  0.472550  0.477030  0.481510  0.494970  0.499450  0.503930  0.530840  0.548780  0.553260  0.557740  0.566710  0.593620  0.611550  0.620520  0.616040  0.611550  0.620520  0.633970  0.647430  0.651910  0.651910  0.647430  0.647430  0.656390  0.660880  0.669850  0.678820  0.678820  0.678820  0.683300  0.687780  0.692270  0.687780  0.683300  0.687780  0.705720  0.719170  0.719170  0.710200  0.714690  0.719170  0.714690  0.719170  0.723660  0.723660  0.728140  0.714690  0.714690  0.728140  0.741590  0.759530  0.777470  0.777470  0.777470  0.781950  0.781950  0.781950 
Shapelet   5  -0.427000 -0.426930 -0.426520 -0.427040 -0.424950 -0.414050 -0.404070 -0.406590 -0.413360 -0.415740 -0.416120 -0.412870 -0.403520 -0.394690 -0.392190 -0.393110 -0.393260 -0.391780 -0.386660 -0.375570 -0.363630 -0.358980 -0.359300 -0.357310 -0.352890 -0.345910 -0.335670 -0.330770 -0.334680 -0.337290 -0.336370 -0.336760 -0.333320 -0.323970 -0.318890 -0.321930 -0.325340 -0.325260 -0.325210 -0.324820 -0.318000 -0.305670 -0.295670 -0.288120 -0.282210 -0.287090 -0.299770 -0.302530 -0.295770 -0.291810 -0.289380 -0.284610 -0.277370 -0.267650 -0.262630 -0.263240 -0.260180 -0.257230 -0.261310 -0.264190 -0.262590 -0.262640 -0.262070 -0.255520 -0.244070 -0.232940 -0.228890 -0.232800 -0.238210 -0.240300 -0.236810 -0.228510 -0.222630 -0.222840 -0.223790 -0.223170 -0.223320 -0.222010 -0.215970 -0.208140 -0.202980 -0.200030 -0.196290 -0.191850 -0.188750 -0.185240 -0.178340 -0.170840 -0.167060 -0.166900 -0.166110 -0.158470 -0.147060 -0.144690 -0.149480 -0.146220 -0.135870 -0.128690 -0.120280 -0.106560 -0.098971 -0.100400 -0.097016 -0.088720 -0.087003 -0.087138 -0.082899 -0.079540 -0.073960 -0.061956 -0.052015 -0.046358 -0.038579 -0.030203 -0.023114 -0.011467  0.003099  0.009104  0.008164  0.015073  0.030281  0.041300  0.045853  0.049234  0.053002  0.058756  0.068623  0.080138  0.091102  0.103000  0.114340  0.124390  0.138020  0.153530  0.163380  0.168280  0.172090  0.175300  0.180210  0.188210  0.198040  0.212130  0.231970  0.247960  0.252130  0.256080  0.270350  0.283770  0.290400  0.302710  0.319390  0.325350  0.327920  0.344100  0.363440  0.372000  0.379350  0.387260  0.387080  0.389690  0.403040  0.415740  0.424510  0.432280  0.438420  0.448970  0.465340  0.480720  0.494570  0.505770  0.512830  0.520980  0.528760  0.531760  0.537720  0.550760  0.563000  0.571570  0.579570  0.586760  0.594450  0.607420  0.623720  0.632790  0.631240  0.631230  0.641580  0.653320  0.657670  0.659640  0.664740  0.674050  0.687690  0.698760  0.702450  0.705470  0.710200  0.715800  0.725870  0.732950  0.731540  0.734900  0.744200  0.747800  0.751510  0.761210  0.769050  0.773690  0.778290  0.783890  0.794500  0.806630  0.811200  0.810830  0.812270  0.815200  0.818520  0.823650  0.833210  0.845780  0.851830  0.847790  0.842820  0.840420  0.838610  0.842320  0.852160  0.862730  0.873160  0.880240  0.882880  0.887600  0.891400  0.890080  0.892490  0.897070  0.893210  0.888380  0.891650  0.895460  0.896770  0.903290  0.914620  0.921280  0.919220  0.914110  0.912670  0.913970  0.913520  0.912450  0.914130  0.917450  0.919480  0.919510  0.921640  0.929450  0.936990  0.940130  0.942990  0.941500  0.932580  0.929660  0.937490  0.945180  0.948520  0.947300  0.942480  0.941170  0.941930  0.937810  0.932830  0.930460  0.929410  0.932700  0.936480  0.932580  0.926540  0.924880  0.921480  0.912100  0.900730  0.892270  0.888240  0.884670  0.880200  0.877880  0.872630  0.860630  0.850580  0.844680  0.836720  0.830040  0.828730  0.828660  0.827130  0.821540  0.809770  0.799000  0.793960  0.786740  0.774470  0.765030  0.757950  0.745560  0.729200  0.713870  0.700740  0.691200  0.683740  0.675710  0.668910  0.661640  0.650670  0.639680  0.628690  0.613800  0.599460  0.588500  0.575170  0.559120  0.547550  0.542900  0.538610  0.527240  0.511030  0.497600  0.486540  0.474710  0.463970  0.452810  0.440140  0.430360  0.419410  0.402850  0.390730  0.384090  0.370890  0.355570  0.348740  0.343860  0.332720  0.317370  0.303470  0.294880  0.287710  0.276930  0.265320  0.254140  0.243930  0.239630  0.236260  0.227690  0.222530  0.219410  0.208320  0.198750  0.195990  0.189570  0.181540  0.174440  0.162740  0.153120  0.146260  0.131810  0.118350  0.116140  0.112320  0.100360  0.093534  0.094788  0.090656  0.078492  0.066742  0.055024  0.043662  0.040792  0.042762  0.038158  0.029177  0.024461  0.025221  0.028914  0.031514  0.026862  0.015384  0.005206 -0.001788 -0.009572 -0.016272 -0.019428 -0.020396 -0.019013 -0.019136 -0.028172 -0.041810 -0.047928 -0.044796 -0.042065 -0.047091 -0.055622 -0.061589 -0.069580 -0.079601 -0.081764 -0.081521 -0.089026 -0.094523 -0.093274 -0.093459 -0.092053 -0.087720 -0.087097 -0.088014 -0.092549 -0.104860 -0.111290 -0.104990 -0.099158 -0.099815 -0.104160 -0.111720 -0.118450 -0.121360 -0.124660 -0.128860 -0.127350 -0.119570 -0.114350 -0.115710 -0.117130 -0.113960 -0.110200 -0.109710 -0.110600 -0.110160 -0.109610 -0.111630 -0.115750 -0.117240 -0.113740 -0.110150 -0.110130 -0.109430 -0.104490 -0.097056 -0.090011 -0.087507 -0.091076 -0.094564 -0.093125 -0.089167 -0.086769 -0.087535 -0.088369 -0.086460 -0.087624 -0.095340 -0.101140 -0.098636 -0.088795 -0.073098 -0.058866 -0.056491 -0.063965 -0.070714 -0.071757 -0.068712 
Shapelet   8   0.192490  0.189180  0.192510  0.191670  0.192050  0.190490  0.191320  0.205150  0.224310  0.239430  0.244730  0.231940  0.216040  0.214880  0.215090  0.215570  0.230560  0.244840  0.240140  0.224720  0.207220  0.191790  0.188500  0.194780  0.191730  0.176830  0.155630  0.119320  0.101680  0.153330  0.215940  0.209570  0.176750  0.167500  0.165590  0.174220  0.191870  0.194020  0.190420  0.191660  0.190820  0.193940  0.191290  0.173530  0.169140  0.192830  0.225320  0.258700  0.289130  0.295180  0.280790  0.289560  0.326230  0.338310  0.310130  0.266720  0.197710  0.087388 -0.041364 -0.163430 -0.274180 -0.395720 -0.545080 -0.686170 -0.808480 -0.958810 -1.123400 -1.264900 -1.420600 -1.610600 -1.814000 -2.042300 -2.292200 -2.544900 -2.814700 -3.091400 -3.346900 -3.601300 -3.863600 -4.105700 -4.326200 -4.533800 -4.724100 -4.918700 -5.141900 -5.369500 -5.564600 -5.739500 -5.941000 -6.180400 -6.423600 -6.662000 -6.905200 -7.117000 -7.265900 -7.359600 -7.377100 -7.314100 -7.214900 -7.061500 -6.821700 -6.549600 -6.272900 -5.954500 -5.595700 -5.217800 -4.829600 -4.458300 -4.113000 -3.762200 -3.380600 -2.960000 -2.508900 -2.060500 -1.633800 -1.216900 -0.792780 -0.346140  0.107730  0.521740  0.892130  1.248000  1.564400  1.804000  1.994700  2.178000  2.349200  2.493800  2.616000  2.722800  2.819500  2.895200  2.916000  2.881100  2.838200  2.817400  2.816900  2.831500  2.846400  2.846700  2.827600  2.781800  2.716700  2.645400  2.551900  2.436800  2.341400  2.271000  2.191000  2.095800  1.996800  1.884500  1.756300  1.627400  1.499300  1.368400  1.241000  1.112200  0.993220  0.925080  0.897300  0.855680  0.804360  0.774610  0.748840  0.709000  0.677450  0.662850  0.640390  0.607040  0.585370  0.572830  0.556400  0.540630  0.522510  0.505860  0.513420  0.534670  0.532900  0.503700  0.471590  0.457350  0.456890  0.457250  0.475090  0.514440  0.528500  0.508180  0.499880  0.507290  0.506140  0.495560  0.469570  0.436220  0.425220  0.440450  0.475250  0.507760  0.494090  0.459350  0.455860  0.452250  0.433670  0.442960  0.461060  0.457380  0.464860  0.490920  0.504960  0.496690  0.467780  0.435470  0.416700  0.404010  0.406840  0.429110  0.425310  0.387790  0.372820  0.397540  0.430540  0.442410  0.419430  0.386380  0.378690  0.390070  0.407120  0.427650  0.429970  0.410030  0.402450  0.413630  0.409820  0.389040  0.388070  0.407880  0.403850  0.364950  0.336700  0.347440  0.367460  0.361330  0.340690  0.338940  0.359570  0.379470  0.385820  0.384650  0.384010  0.384850  0.384620  0.383960  0.385380  0.384700  0.371810  0.349420  0.336410  0.337150  0.331240  0.312340  0.305490  0.322520  0.336370  0.324120  0.300650  0.288080  0.286920  0.289170  0.288040  0.274780  0.251790  0.239880  0.252600  0.275760  0.288250  0.288750  0.287790  0.288120  0.287910  0.288360  0.288080  0.287460  0.289060  0.287970  0.286310  0.291120  0.287460  0.269840  0.261680  0.264060  0.262770  0.270320  0.289170  0.293320  0.278340  0.263020  0.247470  0.232550  0.241560  0.262640  0.256110  0.239130  0.239560  0.237060  0.241580  0.274820  0.297040  0.286360  0.269290  0.258760  0.265740  0.284640  0.287580  0.288970  0.294080  0.267370  0.238640  0.253240  0.277560  0.289260  0.292550  0.274560  0.264760  0.283600  0.283460  0.261650  0.259990  0.271970  0.292070  0.326750  0.339440  0.304930  0.253460  0.227460  0.244870  0.280190  0.292880  0.287220  0.287050  0.288990  0.287990  0.288200  0.287520  0.288490  0.289190  0.285540  0.289510  0.292000  0.274020  0.264730  0.282550  0.292950  0.286380  0.272550  0.233320  0.183940  0.181440  0.221560  0.239860  0.222180  0.203620  0.187790  0.170230  0.167110  0.165840  0.148380  0.138250  0.145220  0.145470  0.139250  0.146660  0.163940  0.172140  0.164650  0.148340  0.129870  0.117540  0.118530  0.115520  0.085636  0.051460  0.044433  0.046982  0.045636  0.058849  0.072455  0.055045  0.019533 -0.006941 -0.022333 -0.036155 -0.055005 -0.071566 -0.075008 -0.073223 -0.073515 -0.072853 -0.073929 -0.073601 -0.079031 -0.107430 -0.123940 -0.102590 -0.103570 -0.140430 -0.150740 -0.146450 -0.165470 -0.183680 -0.201230 -0.235840 -0.261700 -0.266550 -0.266450 -0.265270 -0.268740 -0.286510 -0.307720 -0.315170 -0.314160 -0.323540 -0.348230 -0.381390 -0.415990 -0.442910 -0.457910 -0.462860 -0.454130 -0.436750 -0.439940 -0.471070 -0.484810 -0.465780 -0.461370 -0.480970 -0.495440 -0.518130 -0.552650 -0.562020 -0.551700 -0.554460 -0.568160 -0.588800 -0.623660 -0.661230 -0.680010 -0.676950 -0.682530 -0.713270 -0.725850 -0.705110 -0.704500 -0.723980 -0.714000 -0.694130 -0.699590 -0.703810 -0.699040 -0.721470 -0.761720 -0.770160 -0.750160 -0.743060 -0.753630 -0.771520 -0.792000 -0.792940 -0.774050 -0.766350 -0.781390 -0.818710 -0.860210 -0.864720 -0.845820 -0.854730 -0.876260 -0.870310 -0.850750 -0.841960 -0.845110 -0.858370 -0.877620 -0.893390 -0.895170 -0.893240 -0.917000 -0.943840 -0.928700 -0.917570 -0.951940 -0.960680 -0.918270 -0.903810 -0.931900 -0.942020 -0.924470 -0.912990 -0.917900 -0.931740 -0.950140 -0.966220 -0.980690 -0.995660 -0.989880 -0.967490 -0.971270 -0.990410 -0.989680 -0.994180 -1.014800 -1.018500 -1.005200 -0.989540 -0.971120 -0.961980 -0.966200 -0.966640 -0.963370 -0.966170 -0.966870 -0.962180 -0.966590 -0.982690 -0.992540 -0.989780 -0.988470 -0.986050 -0.963930 -0.940870 -0.949540 -0.966460 -0.964840 -0.971330 -0.991230 -0.993180 -0.985020 -0.990810 -0.993690 -0.978480 -0.965210 -0.964350 -0.964990 -0.966020 -0.966550 -0.961830 -0.967360 -0.986260 -0.980110 -0.936050 -0.898110 -0.891810 -0.893140 -0.890590 -0.901660 -0.918950 -0.919370 -0.914680 -0.917620 -0.904570 -0.868440 -0.843420 -0.843570 -0.840070 -0.817110 -0.797500 -0.802760 -0.824350 -0.841540 -0.847060 -0.843900 -0.828430 -0.805760 -0.796600 -0.798020 -0.787850 -0.769820 -0.754390 -0.730460 -0.693510 -0.659770 -0.638900 -0.626260 -0.625260 -0.632670 -0.624840 -0.607010 -0.597260 -0.573480 -0.552190 -0.579280 -0.604940 -0.585770 -0.576450 -0.577730 -0.544030 -0.510210 -0.508440 -0.508950 -0.504310 -0.508880 -0.509940 -0.496260 -0.479840 -0.464160 -0.445400 -0.432740 -0.418090 -0.385040 -0.359070 -0.360670 -0.365060 -0.362060 -0.362860 -0.356400 -0.330580 -0.297500 -0.273900 -0.265200 -0.265830 -0.267080 -0.265780 -0.265810 -0.268350 -0.263660 -0.246770 -0.228430 -0.214170 -0.198090 -0.179840 -0.167450 -0.168420 -0.174220 -0.165530 -0.148600 -0.136300 
Shapelet  11  -3.240900 -3.576900 -3.983700 -4.443500 -4.797300 -4.974100 -4.726500 -3.895300 -2.816500 -1.719900 -0.534990  0.791450  2.011800  2.913700  3.780300  4.629300  5.283600  5.796500  6.486300  7.229100  7.883400  8.590900  9.457500 10.200000 10.536000 10.483000 10.147000  9.705100  9.156800 


; cmd = /home/grad00/soren885/capstone/ShapeletResearch/Execs/FastShapelet /home/grad00/soren885/capstone/Shapelet_Datasets/UCR_Master/CinC_ECG_torso_TRAIN 4 40 820 1 2 10 manhattan 1 0 10 ./replications/CinC_ECG_torso/CinC_ECG_torso_manhattan_unnormed_CID_REP05_tree.txt ./replications/CinC_ECG_torso/CinC_ECG_torso_manhattan_unnormed_CID_REP05_time.txt
; time =>  1344.801  19.981 114.395   7.829 1193.613 
; command = /home/grad00/soren885/capstone/ShapeletResearch/Execs/Classify /home/grad00/soren885/capstone/Shapelet_Datasets/UCR_Master/CinC_ECG_torso_TEST 4 1380 manhattan 1 0 ./replications/CinC_ECG_torso/CinC_ECG_torso_manhattan_unnormed_CID_REP05_tree.txt ./replications/CinC_ECG_torso/CinC_ECG_torso_manhattan_unnormed_CID_REP05_acc.txt
; accuracy= 68.333   Correct:943 , Wrong: 437


;   == Confusion Matrix ==
;   real |   3    2    4    1 
;   -----+------------------------
;   p  3 | 179   57   11   64 
;   p  2 | 120  244   19   37 
;   p  4 |  17   20  311   40 
;   p  1 |  27   21    4  209 

