;Shapelet Tree 

;random seed:1503431327, rand()=1984559905, rand()=276958044
;command = /home/grad00/soren885/capstone/ShapeletResearch/Execs/FastShapelet /home/grad00/soren885/capstone/Shapelet_Datasets/UCR_Master/CinC_ECG_torso_TRAIN 4 40 820 1 2 10 euclidean 1 0 10 ./replications/CinC_ECG_torso/CinC_ECG_torso_euclidean_unnormed_CID_REP10_tree.txt ./replications/CinC_ECG_torso/CinC_ECG_torso_euclidean_unnormed_CID_REP10_time.txt 

;Local Class:   0  1  2  3 
;Real  Class:   1  3  4  2 

;Node ID class   obj  pos  len  dist_th 
TreeSize: 16 
NonL  1    --     12   46  797  45.2776 ==>   0  12   0  12  /   5   0  10   1 
NonL  2    --      5  1012  307   6.6790 ==>   0   0   0  10  /   0  12   0   2 
NonL  3    --      1   73  343  14.4359 ==>   0   0  10   0  /   5   0   0   1 
Leaf  4     2    
NonL  5    --      6    7  775  44.4588 ==>   0  12   0   0  /   0   0   0   2 
Leaf  6     4    
NonL  7    --      2  545  191  15.1347 ==>   0   0   0   1  /   5   0   0   0 
Leaf 10     3    
Leaf 11     2    
Leaf 14     2    
Leaf 15     1    

;Shapelet id   <data>
Shapelet   1   0.073449  0.056042  0.057545  0.060449  0.059443  0.070271  0.081136  0.079584  0.084446  0.098635  0.096396  0.076060  0.061634  0.059754  0.059916  0.059132  0.059847  0.060276  0.059150  0.059180  0.061287  0.059531  0.048548  0.036203  0.036166  0.048661  0.059537  0.060932  0.059475  0.059762  0.059008  0.059308  0.067948  0.082865  0.095213  0.104750  0.117270  0.132140  0.140100  0.131010  0.110540  0.099720  0.102880  0.099028  0.084361  0.080093  0.082316  0.065787  0.039729  0.033561  0.042212  0.042199  0.036153  0.039068  0.050828  0.061595  0.062430  0.056063  0.058179  0.072592  0.079493  0.067643  0.055073  0.057643  0.069062  0.080997  0.093349  0.102870  0.102170  0.090738  0.079603  0.085348  0.108260  0.121590  0.110170  0.099772  0.110680  0.120490  0.108170  0.089661  0.080469  0.071375  0.056550  0.044025  0.034716  0.021944  0.013138  0.021731  0.036755  0.038612  0.037395  0.054868  0.081262  0.095189  0.103210  0.116160  0.123680  0.119870  0.117170  0.121290  0.121720  0.116600  0.119160  0.132050  0.140990  0.140490  0.140160  0.140410  0.131940  0.117390  0.105350  0.094026  0.081690  0.076937  0.079931  0.072483  0.049529  0.037437  0.055302  0.080309  0.084460  0.077718  0.078299  0.081286  0.079861  0.078741  0.080177  0.080694  0.075972  0.061574  0.049633  0.065770  0.104570  0.127680  0.121930  0.114490  0.121070  0.124580  0.113510  0.101160  0.099417  0.099561  0.089603  0.073802  0.061959  0.056990  0.059722  0.070828  0.082530  0.082664  0.074968  0.078696  0.100980  0.123880  0.125840  0.110330  0.099874  0.106610  0.122540  0.135550  0.142150  0.141180  0.131880  0.118470  0.105610  0.097143  0.097995  0.103970  0.099432  0.084308  0.081017  0.094853  0.104170  0.100060  0.096941  0.101050  0.101670  0.096895  0.098871  0.110810  0.121140  0.121490  0.118470  0.119390  0.121020  0.119520  0.118540  0.121170  0.121110  0.112490  0.098898  0.085964  0.077119  0.077222  0.088069  0.099786  0.101890  0.098945  0.099020  0.100580  0.099915  0.099057  0.100050  0.100230  0.099140  0.099581  0.100740  0.099356  0.097805  0.103970  0.117230  0.124890  0.118710  0.105970  0.095947  0.084180  0.067712  0.059759  0.068964  0.084961  0.096782  0.103340  0.100200  0.086559  0.079638  0.091565  0.110070  0.119450  0.120370  0.119670  0.119460  0.120180  0.120030  0.118900  0.120130  0.121100  0.118380  0.118710  0.123100  0.119280  0.113140  0.128610  0.155420  0.158030  0.139970  0.134020  0.142500  0.143130  0.132550  0.120680  0.109130  0.096771  0.084392  0.075978  0.078375  0.090745  0.100760  0.101110  0.098931  0.099516  0.100040  0.099760  0.099741  0.099428  0.099062  0.104840  0.120360  0.135550  0.140170  0.139380  0.141310  0.140070  0.135900  0.143280  0.157250  0.159380  0.159110  0.171890  0.179800  0.167370  0.155640  0.158790  0.162130  0.159550  0.159560  0.158030  0.144470  0.127270  0.119550  0.111380  0.091350  0.077978  0.093373  0.119730  0.125620  0.117360  0.117350  0.122680  0.120270  0.116440  0.121440  0.123700  0.111700  0.100080  0.106380  0.122310  0.134080  0.145860  0.158190  0.161810  0.159750  0.159790  0.159350  0.159060  0.162570  0.159650  0.146060  0.138980  0.140690  0.133600  0.120240  0.117040  0.120520  0.120190  0.119890  0.120040  0.117300  0.121640  0.134740  0.141830  0.140140  0.139920  0.139530  0.137240  0.144610  0.157810  0.161290  0.159920  0.161200  0.157770  0.156350  0.174440  0.199850  0.213350  0.222830  0.225150  0.204690  0.180890  0.178570  0.178330  0.164020  0.161510  0.177720  0.184770  0.178900  0.177940  0.180890  0.179920  0.184230  0.202140  0.226530  0.247540  0.258820  0.260350  0.260120  0.261250  0.257740  0.245270  0.230740  0.220390  0.210450  0.194770  0.170530  0.147490  0.139720  0.142230  0.138310  0.134400  0.150940  0.176550  0.188970  0.202820  0.237210  0.275290  0.296820  0.309290  0.320720  0.323230  0.318460  0.319110  0.319670  0.300440  0.263630  0.232130  0.210260  0.179980  0.142560  0.115590  0.094258  0.060127  0.016044 -0.016796 -0.038068 -0.065850 -0.101770 -0.136110 -0.171420 -0.217190 -0.265140 -0.309620 -0.365020 -0.426180 -0.466880 -0.481430 -0.490440 -0.507520 -0.530370 -0.565610 -0.618820 -0.679510 -0.735340 -0.782390 -0.825770 -0.859190 -0.869580 -0.857890 -0.833140 -0.810840 -0.801370 -0.807350 -0.824040 -0.845110 -0.876190 -0.913010 -0.942750 -0.963050 -0.982630 -1.015600 -1.063800 -1.122100 -1.182000 -1.226000 -1.244200 -1.232400 -1.201400 -1.165200 -1.129100 -1.092900 -1.046400 -0.991720 -0.946850 -0.919230 -0.897770 -0.871770 -0.856200 -0.859710 -0.865430 -0.860690 -0.847520 -0.837260 -0.826140 -0.805260 -0.781160 -0.764460 -0.759980 -0.749560 -0.719570 -0.682960 -0.660920 -0.663460 -0.675970 -0.687170 -0.699880 -0.713440 -0.722240 -0.722330 -0.718800 -0.705840 -0.674030 -0.636930 -0.610280 -0.595140 -0.583930 -0.572390 -0.560630 -0.555160 -0.566970 -0.580660 -0.575030 -0.561480 -0.552170 -0.532980 -0.495800 -0.462130 -0.442560 -0.421160 -0.394730 -0.370910 -0.348320 -0.324280 -0.306150 -0.300200 -0.292050 -0.266030 -0.228900 -0.192220 -0.157410 -0.129510 -0.115610 -0.092651 -0.042385  0.000273  0.012189  0.028243  0.066939  0.094473  0.099647  0.109050  0.122760  0.123170  0.114500  0.101800  0.079945  0.055635  0.042294  0.038439  0.038891  0.046922  0.061700  0.074699  0.083261  0.095200  0.116640  0.141140  0.156920  0.158640  0.145800  0.127660  0.119860  0.121240  0.118040  0.115640  0.132800  0.158420  0.165530  0.158190  0.157380  0.162040  0.160370  0.161980  0.185160  0.222700  0.250620  0.259620  0.259980  0.260070  0.259600  0.260540  0.260940  0.254040  0.239700  0.225530  0.218250  0.218030  0.225590  0.239360  0.252500  0.262420  0.273600  0.288890  0.299610  0.299810  0.301000  0.312180  0.327390  0.338430  0.348270  0.362050  0.375040  0.382320  0.381600  0.373100  0.359400  0.345360  0.338540  0.339160  0.341210  0.340270  0.338020  0.342150  0.354090  0.369040  0.379770  0.381730  0.379600  0.379060  0.381110  0.380650  0.377540  0.381510  0.393660  0.403350  0.401540  0.396680  0.400930  0.404480  0.394410  0.381180  0.384620  0.400680  0.412910  0.424180  0.436910  0.442480  0.440530  0.439190  0.440420  0.440060  0.440760  0.440800  0.432080  0.417200  0.403960  0.397760  0.399070  0.408120  0.421740  0.425250  0.413620  0.401350  0.399950  0.400120  0.396510  0.404550  0.418060  0.419020  0.420240  0.439710  0.467960  0.490560  0.516350  0.539400  0.542690  0.540820  0.552180  0.568730  0.579110  0.594450  0.627080  0.674170  0.724610  0.771590  0.816920  0.865700  0.909580  0.923350  0.909350  0.883150  0.839960  0.755360  0.606460  0.416430  0.206720 -0.009432 -0.228770 -0.461570 -0.695590 -0.941970 -1.208500 -1.495000 -1.803600 -2.136300 -2.521100 -2.928600 -3.319900 -3.691400 -4.038800 -4.360200 -4.639100 -4.899200 -5.164100 -5.438400 -5.741700 -6.051500 -6.339200 -6.588900 -6.791400 -6.953200 -7.060100 -7.124100 -7.152300 -7.120900 -7.021100 -6.845800 -6.628900 -6.404000 -6.193500 -6.024400 -5.861300 -5.679400 -5.502600 -5.372300 -5.304400 -5.275700 -5.308300 -5.401200 -5.475500 -5.468800 -5.364000 -5.215600 -5.053000 -4.856900 -4.603500 -4.257500 -3.825200 -3.330000 -2.798600 -2.251500 -1.668700 -1.066200 -0.510170 -0.092059  0.135180  0.224820  0.267220  0.346800  0.493710  0.698520  0.965390  1.280000  1.605300  1.869200  2.030100  2.111100  2.143200  2.150000  2.138900  2.114600  2.085600  2.064400  2.052800  2.039000  2.015000  1.987300  1.950000  1.899600  1.856900  1.823600  1.777800  1.716600  1.651100  1.574300  1.469700  1.356700  1.251400  1.151700  1.080600  1.056600  1.063800  1.065100  1.049000  1.023200  0.975510  0.897030  0.791230  0.669210  0.536980  0.399210  0.278500  0.180750  0.103480  0.062154  0.063392  0.081367  0.091860  0.106640  0.120020  0.106180  0.078366  0.062490  0.057540  0.056180  0.075445  0.119060  0.159740  0.186420  0.208970  0.238690  0.276490  0.321240  0.371620  0.419930  0.461170  0.495530  0.524100  0.542290  0.543680 
Shapelet   2  -0.010564 -0.012916 -0.012166 -0.006938 -0.005553 -0.010234 -0.010856 -0.006099 -0.004544 -0.005150 -0.001961  0.002142  0.001628 -0.000009  0.001097  0.001590  0.000606  0.000533  0.001615  0.001154 -0.000329  0.001996  0.006399  0.006293  0.001552  0.000748  0.009403  0.021291  0.029106  0.032060  0.032637  0.032216  0.031499  0.033493  0.037620  0.039753  0.038477  0.034858  0.030716  0.026862  0.025168  0.026075  0.026667  0.025341  0.021578  0.016951  0.013745  0.012759  0.013734  0.013896  0.012836  0.013211  0.016205  0.020381  0.024026  0.027235  0.026878  0.022088  0.019874  0.023304  0.026907  0.026431  0.025544  0.026101  0.023457  0.017839  0.013895  0.013465  0.013606  0.012865  0.013870  0.014379  0.011103  0.007434  0.008933  0.014528  0.018363  0.021087  0.025146  0.029235  0.032678  0.036024  0.040268  0.043954  0.046887  0.051378  0.058251  0.066030  0.069697  0.069027  0.069834  0.073614  0.076443  0.076019  0.076980  0.081808  0.088556  0.096490  0.101190  0.099072  0.095070  0.096463  0.101870  0.105490  0.109000  0.112980  0.114130  0.113610  0.113350  0.113460  0.113370  0.114080  0.113670  0.109410  0.107110  0.110990  0.117350  0.119940  0.118880  0.120560  0.124410  0.127680  0.131740  0.136610  0.138570  0.137420  0.141290  0.149700  0.154710  0.157890  0.164380  0.173630  0.180860  0.185730  0.188820  0.188520  0.189070  0.192990  0.198120  0.201250  0.201190  0.201070  0.201020  0.200870  0.201140  0.203150  0.208670  0.212890  0.213200  0.213280  0.218100  0.227630  0.235450  0.240530  0.244140  0.247330  0.251620  0.255240  0.258460  0.262060  0.268080  0.276460  0.283790  0.290570  0.294380  0.294640  0.295010  0.297590  0.302250  0.305580  0.310400  0.318930  0.325380  0.325910  0.324320  0.329500  0.337710  0.339720  0.338790  0.341060  0.347930  0.355430  0.362900  0.370460  0.374250  0.377160  0.380910  0.385060  0.388910  0.391690  0.396260  0.399980  0.402560  0.407100  0.413760  0.421610  0.428480  0.436940  0.444430  0.445850  0.444980  0.444500  0.444920  0.444880  0.446540  0.451890  0.455660  0.458370  0.462170  0.467110  0.470350  0.469280  0.470820  0.474900  0.476890  0.476560  0.477580  0.484540  0.492180  0.497410  0.501060  0.504150  0.508190  0.508490  0.506090  0.506760  0.513040  0.520840  0.521530  0.518710  0.519120  0.523310  0.526620  0.523480  0.517690  0.510310  0.501690  0.495480  0.491010  0.487640  0.483630  0.480840  0.477120  0.468810  0.462860  0.459650  0.453000  0.441070  0.428160  0.418890  0.413370  0.415200  0.419700  0.418310  0.413490  0.406680  0.396650  0.385070  0.378660  0.376450  0.369510  0.360970  0.353760  0.346150  0.339260  0.334590  0.331350  0.324170  0.313680  0.302730  0.292680  0.288330  0.288330  0.287880  0.283750  0.276550  0.269130  0.261080  0.255120  0.251990  0.247470  0.238310  0.225970  0.217100  0.210110  0.201400  0.195140  0.191980  0.186210  0.174580  0.164100  0.158030  0.150770  0.143450  0.139570  0.136500  0.128120  0.115480  0.106270  0.099449  0.089721  0.078259  0.071355  0.069747  0.066590  0.061457  0.057950 
Shapelet   3   0.015116  0.015335  0.015069  0.015039  0.015665  0.014768  0.014976  0.016259  0.014040  0.014964  0.017594  0.011739  0.015318  0.034737  0.040429  0.040472  0.058676  0.063479  0.036686  0.016375  0.016624  0.014274  0.012190  0.026618  0.041750  0.041366  0.038540  0.040497  0.040311  0.039713  0.039887  0.039334  0.049203  0.073144  0.089022  0.088864  0.091642  0.090898  0.073313  0.063091  0.064820  0.062274  0.071851  0.089409  0.090815  0.090778  0.089369  0.071804  0.062220  0.064824  0.063065  0.073353  0.090946  0.091656  0.088338  0.089774  0.089261  0.091789  0.087353  0.069242  0.060021  0.067767  0.084697  0.105870  0.115510  0.114340  0.116880  0.110250  0.091750  0.085352  0.094121  0.112140  0.134620  0.136030  0.115490  0.109290  0.119020  0.114630  0.096414  0.086830  0.089744  0.090332  0.092707  0.116920  0.140100  0.128880  0.113910  0.116230  0.103650  0.089286  0.106820  0.122520  0.111460  0.110170  0.129900  0.140140  0.139040  0.141870  0.135480  0.117020  0.111080  0.115950  0.114880  0.113620  0.114930  0.114510  0.114590  0.114170  0.114380  0.115690  0.112520  0.114420  0.131200  0.143580  0.139000  0.136620  0.143130  0.138090  0.119160  0.116880  0.143360  0.163760  0.160560  0.167110  0.186910  0.181650  0.160690  0.161220  0.169140  0.161370  0.161020  0.179900  0.190040  0.188750  0.191850  0.183980  0.165680  0.162110  0.164200  0.163650  0.178070  0.193860  0.189380  0.185160  0.193190  0.188920  0.170020  0.162480  0.164130  0.162320  0.171910  0.190270  0.192150  0.185500  0.190080  0.192370  0.177700  0.162400  0.162410  0.166610  0.162880  0.162030  0.175770  0.192460  0.191790  0.174580  0.161700  0.163230  0.166560  0.162100  0.162960  0.178140  0.195810  0.212630  0.220840  0.203690  0.189020  0.193040  0.178520  0.164190  0.181940  0.189540  0.189650  0.209910  0.207430  0.187940  0.189540  0.179330  0.163760  0.181260  0.195270  0.187410  0.187490  0.190510  0.188680  0.189050  0.188000  0.190020  0.190230  0.183940  0.195080  0.212910  0.211470  0.219900  0.238180  0.226600  0.209150  0.213340  0.214580  0.216720  0.238060  0.258090  0.268610  0.288900  0.310040  0.311800  0.313900  0.330980  0.345500  0.366110  0.401430  0.424160  0.441050  0.475400  0.503350  0.513730  0.530220  0.551180  0.564350  0.580900  0.602950  0.611700  0.610310  0.621720  0.642590  0.658680  0.674430  0.691930  0.708780  0.726130  0.741120  0.759060  0.779420  0.785100  0.785160  0.799700  0.818490  0.835490  0.854040  0.860580  0.860070  0.875290  0.891840  0.882110  0.862370  0.858690  0.859100  0.857040  0.869410  0.887530  0.903220  0.925050  0.933800  0.931770  0.947960  0.959240  0.956920  0.981050  1.020500  1.052800  1.100100  1.146500  1.157700  1.164400  1.198800  1.231300  1.245500  1.270500  1.306800  1.337200  1.380200  1.432900  1.467700  1.496600  1.533400  1.566600  1.598800  1.634000  1.666600  1.701100  1.733400  1.750100  1.761400  1.783700  1.801700  1.800800  1.807400  1.842900  1.884100  1.907600  1.924200  1.943600  1.953400  1.952700  1.952200  1.951000  1.952600  1.945900  1.904700  1.855200  1.824200  1.773900  1.704500  1.652700  1.596200  1.527800  1.488400  1.466400  1.426900  1.389400  1.367100  1.323300  1.253600  1.197200  1.147100  1.078700  1.016500  0.975080  0.941040  0.918380  0.905150  0.888190  0.870590  0.853400  0.836620  0.831450  0.835880  0.835650  0.822700  0.800400  0.785860  0.774890  0.743370 
Shapelet   5   0.261520  0.285420  0.289680  0.281220  0.285370  0.289360  0.279400  0.285750  0.311930  0.319060  0.319180  0.341770  0.357440  0.352240  0.352260  0.345990  0.317540  0.308240  0.336590  0.352420  0.347730  0.366180  0.386440  0.383340  0.398300  0.420250  0.416750  0.437650  0.490320  0.517470  0.522600  0.519720  0.497700  0.473980  0.451110  0.425170  0.418520  0.419350  0.415570  0.433090  0.454270  0.452630  0.462830  0.488900  0.490140  0.489960  0.524880  0.535900  0.483690  0.453650  0.480320  0.479160  0.451590  0.470460  0.509680  0.520590  0.519080  0.528230  0.559360  0.588550  0.566740  0.513930  0.489230  0.478780  0.448510  0.440970  0.488350  0.521500  0.497680  0.477080  0.490080  0.511800  0.539080  0.554200  0.532250  0.498960  0.486910  0.507460  0.546590  0.551010  0.523820  0.529620  0.559000  0.579900  0.608370  0.620320  0.595950  0.573340  0.547500  0.519730  0.544550  0.596750  0.618750  0.626310  0.615960  0.569560  0.519240  0.478320  0.452310  0.476560  0.531700  0.554770  0.548900  0.558540  0.582730  0.593270  0.583980  0.560650  0.542840  0.561830  0.587830  0.570890  0.553810  0.579010  0.608870  0.624260  0.624470  0.611960  0.629860  0.656140  0.633200  0.626690  0.678510  0.691340  0.638150  0.593610  0.569910  0.549470  0.550830  0.562720  0.545740  0.520460  0.545810  0.601590  0.598100  0.539450  0.522720  0.549720  0.566710  0.602540  0.650400  0.656380  0.657980  0.660160  0.613330  0.587720  0.617810  0.611610  0.580380  0.585400  0.591310  0.586770  0.588020  0.584540  0.591850  0.592000  0.548330  0.513720  0.519130  0.521500  0.521320  0.521820  0.511600  0.534840  0.584010  0.579680  0.542880  0.549990  0.580410  0.587470  0.587150  0.592240  0.580160  0.556100  0.551380  0.551800  0.524520  0.504610  0.539710  0.585300  0.590970  0.587880  0.588760  0.569030  0.545640  0.523390  0.492270  0.493130  0.519610  0.506000  0.480990  0.515480  0.575090  0.580670  0.525400  0.481140  0.503940  0.551740  0.576760  0.595410  0.589880  0.543180  0.509840  0.488750  0.455730  0.463840  0.487150  0.461840  0.463350  0.518600  0.533580  0.507570  0.487560  0.478910  0.501090  0.520890  0.482490  0.434180  0.419920  0.402060  0.371410  0.352640  0.348300  0.360840  0.385860  0.392780  0.378560  0.385980  0.414980  0.412080  0.386070  0.398580  0.440340  0.453290  0.431350  0.412610  0.420010  0.443720  0.458230  0.453160  0.449310  0.458450  0.452820  0.428230  0.412390  0.384570  0.333210  0.319160  0.354030  0.381180  0.388770  0.385510  0.363460  0.344680  0.353460  0.375950  0.398200  0.421110  0.444600  0.459640  0.452140  0.429080  0.408110  0.384090  0.358460  0.350220  0.352440  0.350350  0.362670  0.387390  0.372830  0.323410  0.321810  0.371570  0.391310  0.386530  0.409640  0.420250  0.381020  0.351200  0.360080  0.348700  0.300590  0.274590  0.287690  0.310730  0.327170  0.315610  0.288710  0.287750  0.282490  0.255020  0.260880  0.288050  0.306450  0.351280  0.387530  0.364350  0.342950  0.354440  0.355550  0.349050  0.353280  0.353690  0.351510  0.351830  0.331450  0.294980  0.286060  0.289530  0.273470  0.293250  0.346450  0.333930  0.276200  0.253400  0.247800  0.255210  0.281760  0.275460  0.247740  0.248510  0.253580  0.252600  0.275090  0.306290  0.320300  0.320880  0.307630  0.278280  0.253530  0.259950  0.293170  0.317840  0.308670  0.277980  0.254570  0.249470  0.252080  0.251850  0.251770  0.249980  0.227500  0.191890  0.187390  0.212810  0.222400  0.216820  0.217660  0.216550  0.220860  0.244580  0.271620  0.288410  0.288460  0.268600  0.245890  0.223570  0.204790  0.232060  0.304780  0.340580  0.303990  0.257630  0.235810  0.208820  0.185500  0.186730  0.180510  0.178870  0.222890  0.254270  0.225150  0.206570  0.221730  0.195230  0.144270  0.168140  0.241450  0.275410  0.292530  0.317450  0.305390  0.279690  0.284040  0.275960  0.238640  0.218370  0.219540  0.215880  0.216040  0.236140  0.256490  0.253340  0.245100  0.258980  0.282720  0.289670  0.281990  0.283260  0.303670  0.324450  0.321190  0.296560  0.284540  0.312800  0.362410  0.395510  0.416330  0.454740  0.506400  0.549670  0.592380  0.637520  0.655270  0.648880  0.667640  0.717570  0.750270  0.759460  0.786030  0.819100  0.819630  0.821160  0.862490  0.904680  0.923060  0.932580  0.904030  0.828360  0.798080  0.848880  0.860020  0.786530  0.752550  0.787590  0.798830  0.780330  0.757650  0.726180  0.733020  0.787130  0.820500  0.819690  0.791860  0.710100  0.615550  0.587610  0.597590  0.566000  0.521160  0.533680  0.565040  0.554690  0.557660  0.626370  0.688340  0.690970  0.694150  0.722210  0.729140  0.712580  0.688880  0.660810  0.659540  0.688900  0.698980  0.669260  0.621060  0.589670  0.591250  0.587580  0.561930  0.553350  0.554020  0.531640  0.515670  0.520760  0.520310  0.528340  0.555000  0.547680  0.475730  0.382520  0.313090  0.247190  0.145110  0.044352 -0.003835 -0.055480 -0.163530 -0.283740 -0.394120 -0.490680 -0.555660 -0.667610 -0.872110 -1.045000 -1.132800 -1.217600 -1.322900 -1.440000 -1.559500 -1.632000 -1.668800 -1.714600 -1.748800 -1.768400 -1.793500 -1.794500 -1.762800 -1.737600 -1.721700 -1.695800 -1.672800 -1.641400 -1.550900 -1.430700 -1.354400 -1.284700 -1.187800 -1.137400 -1.123500 -1.060600 -0.966040 -0.880180 -0.790100 -0.700640 -0.608340 -0.494520 -0.395520 -0.348670 -0.308560 -0.237460 -0.178580 -0.138490 -0.063590  0.030138  0.099174  0.145200  0.147710  0.118960  0.138350  0.191690  0.194110  0.169900  0.192270  0.241360  0.259210  0.250060  0.250260  0.247440  0.208170  0.159430  0.145450  0.151790  0.151570  0.150360  0.150600  0.150020  0.154260  0.146240  0.100400  0.052296  0.053441  0.058246  0.013830 -0.020697 -0.017348 -0.023438 -0.009406  0.041258  0.045992  0.008817  0.009327  0.036990  0.052014  0.052593  0.034803  0.012140  0.012941  0.023525  0.010499 -0.013898 -0.019620 -0.017152 -0.017862 -0.014877 -0.019650 -0.021026  0.002701  0.017264  0.014534  0.033029  0.052973  0.050578  0.051739  0.045308  0.019553  0.023842  0.059363  0.056943  0.020719  0.022410  0.048480  0.036374  0.011217  0.014379  0.018253  0.018002  0.043080  0.075105  0.084058  0.083157  0.085330  0.081628  0.081423  0.101400  0.121980  0.119570  0.099600  0.077261  0.079635  0.108830  0.113600  0.086946  0.077192  0.088767  0.112250  0.144550  0.145940  0.119700  0.113930  0.117340  0.116420  0.122850  0.107780  0.083820  0.100360  0.121790  0.117660  0.118480  0.111410  0.085859  0.077448  0.089488  0.113490  0.146000  0.141600  0.088762  0.065238  0.101110  0.118510  0.092184  0.085051  0.085235  0.055330  0.061470  0.113940  0.113400  0.062422  0.048580  0.073924  0.082539  0.052782  0.018420  0.024507  0.049114  0.037662  0.000119 -0.017323 -0.015855 -0.019633 -0.017945 -0.011093 -0.028403 -0.050675 -0.050636 -0.053980 -0.051837 -0.024624 -0.022261 -0.050404 -0.055060 -0.049822 -0.051293 -0.031501 -0.009427 -0.017086 -0.040131 -0.056727 -0.051326 -0.042522 -0.065476 -0.084766 -0.076399 -0.110440 -0.185620 -0.189720 -0.099912 -0.017253 -0.020477 -0.090674 -0.152520 -0.177450 -0.197020 -0.219660 -0.240010 -0.270510 -0.286370 -0.250110 -0.184050 -0.116130 -0.031502  0.073144  0.189050  0.337070  0.521900  0.695600  0.831970  0.968640  1.134900  1.301400  1.418400  1.463200  1.447800  1.403200  1.359100  1.318400  1.256300  1.150600  0.982580  0.766110  0.575540  0.424320  0.247010  0.070853 -0.059135 -0.218080 -0.442420 -0.686040 -0.943920 -1.221900 -1.527500 -1.867100 -2.161700 -2.379000 -2.632100 -2.942300 -3.197700 -3.386200 -3.569700 -3.748300 -3.917900 -4.112400 -4.353200 -4.619100 -4.897300 -5.241800 -5.671200 -6.088900 -6.463300 -6.874400 -7.305100 -7.671500 -7.960500 -8.138000 -8.150900 -8.030900 -7.813000 -7.502300 -7.147100 -6.784700 -6.387200 -5.925600 
Shapelet   7  -0.241790 -0.238750 -0.230960 -0.230870 -0.237380 -0.241630 -0.248490 -0.261180 -0.268340 -0.267320 -0.268900 -0.268080 -0.256010 -0.248080 -0.254230 -0.259910 -0.258280 -0.258140 -0.257440 -0.250840 -0.248930 -0.256160 -0.263020 -0.267990 -0.274200 -0.277380 -0.276650 -0.279600 -0.286540 -0.291910 -0.298050 -0.304360 -0.303630 -0.296210 -0.289170 -0.285650 -0.285300 -0.287790 -0.286940 -0.280100 -0.276830 -0.278070 -0.272720 -0.260150 -0.251300 -0.248310 -0.247140 -0.250690 -0.256830 -0.260420 -0.268190 -0.284670 -0.300920 -0.311370 -0.322500 -0.333530 -0.335730 -0.332620 -0.332540 -0.334760 -0.333880 -0.328860 -0.322640 -0.316600 -0.313460 -0.314480 -0.313250 -0.303040 -0.289780 -0.285680 -0.286750 -0.281860 -0.276770 -0.280870 -0.289510 -0.294770 -0.297370 -0.295700 -0.285340 -0.273220 -0.267520 -0.269170 -0.276520 -0.284210 -0.286140 -0.285120 -0.289610 -0.295500 -0.295400 -0.296500 -0.302940 -0.304680 -0.297300 -0.292120 -0.296690 -0.303250 -0.305510 -0.305170 -0.305430 -0.305150 -0.300330 -0.292760 -0.286810 -0.287500 -0.295700 -0.303090 -0.305320 -0.309490 -0.324990 -0.342010 -0.348600 -0.354090 -0.365140 -0.378080 -0.395850 -0.426140 -0.461780 -0.494230 -0.531960 -0.578210 -0.624380 -0.668090 -0.709950 -0.741610 -0.763100 -0.780720 -0.786890 -0.768400 -0.723560 -0.668430 -0.602140 -0.517760 -0.423920 -0.328490 -0.231960 -0.112790  0.026504  0.168520  0.319370  0.490350  0.698000  0.924680  1.159500  1.406300  1.650600  1.893700  2.132000  2.386500  2.666400  2.955400  3.262400  3.573900  3.893600  4.223300  4.551300  4.877400  5.171900  5.448600  5.724800  5.987800  6.219800  6.397700  6.556500  6.714600  6.871600  7.039500  7.197800  7.336900  7.451900  7.552600  7.644100  7.711200  7.772700  7.826300  7.830100  7.758100  7.604100  7.405000  7.177700  6.918200  6.632900  6.296600  5.900500  5.437500  4.903100  4.288800  3.578200  2.838500  2.144900  1.556200  1.119300 


; cmd = /home/grad00/soren885/capstone/ShapeletResearch/Execs/FastShapelet /home/grad00/soren885/capstone/Shapelet_Datasets/UCR_Master/CinC_ECG_torso_TRAIN 4 40 820 1 2 10 euclidean 1 0 10 ./replications/CinC_ECG_torso/CinC_ECG_torso_euclidean_unnormed_CID_REP10_tree.txt ./replications/CinC_ECG_torso/CinC_ECG_torso_euclidean_unnormed_CID_REP10_time.txt
; time =>  697.030  12.124  49.800   3.866 626.095 
; command = /home/grad00/soren885/capstone/ShapeletResearch/Execs/Classify /home/grad00/soren885/capstone/Shapelet_Datasets/UCR_Master/CinC_ECG_torso_TEST 4 1380 euclidean 1 0 ./replications/CinC_ECG_torso/CinC_ECG_torso_euclidean_unnormed_CID_REP10_tree.txt ./replications/CinC_ECG_torso/CinC_ECG_torso_euclidean_unnormed_CID_REP10_acc.txt
; accuracy= 67.464   Correct:931 , Wrong: 449


;   == Confusion Matrix ==
;   real |   3    2    4    1 
;   -----+------------------------
;   p  3 | 224   86    1  116 
;   p  2 |  58  214   10   20 
;   p  4 |  44   33  326   47 
;   p  1 |  17    9    8  167 

