;Shapelet Tree 

;random seed:1503381506, rand()=1591020585, rand()=1688095800
;command = /home/grad00/soren885/capstone/ShapeletResearch/Execs/FastShapelet /home/grad00/soren885/capstone/Shapelet_Datasets/UCR_Master/CinC_ECG_torso_TRAIN 4 40 820 1 2 10 manhattan 0 0 10 ./replications/CinC_ECG_torso/CinC_ECG_torso_manhattan_unnormed_NOCID_REP07_tree.txt ./replications/CinC_ECG_torso/CinC_ECG_torso_manhattan_unnormed_NOCID_REP07_time.txt 

;Local Class:   0  1  2  3 
;Real  Class:   1  3  4  2 

;Node ID class   obj  pos  len  dist_th 
TreeSize: 14 
NonL  1    --     12   49  717  504.0446 ==>   2  12   0  12  /   3   0  10   1 
NonL  2    --      5  1192  327  52.3544 ==>   2   0   0  11  /   0  12   0   1 
NonL  3    --     12   29  635  345.5795 ==>   3   0   0   1  /   0   0  10   0 
NonL  4    --      0   61  555  154.6189 ==>   2   0   0   0  /   0   0   0  11 
Leaf  5     3    
NonL  6    --      1   22  759  280.2852 ==>   0   0   0   1  /   3   0   0   0 
Leaf  7     4    
Leaf  8     1    
Leaf  9     2    
Leaf 12     2    
Leaf 13     1    

;Shapelet id   <data>
Shapelet   1   0.060449  0.059443  0.070271  0.081136  0.079584  0.084446  0.098635  0.096396  0.076060  0.061634  0.059754  0.059916  0.059132  0.059847  0.060276  0.059150  0.059180  0.061287  0.059531  0.048548  0.036203  0.036166  0.048661  0.059537  0.060932  0.059475  0.059762  0.059008  0.059308  0.067948  0.082865  0.095213  0.104750  0.117270  0.132140  0.140100  0.131010  0.110540  0.099720  0.102880  0.099028  0.084361  0.080093  0.082316  0.065787  0.039729  0.033561  0.042212  0.042199  0.036153  0.039068  0.050828  0.061595  0.062430  0.056063  0.058179  0.072592  0.079493  0.067643  0.055073  0.057643  0.069062  0.080997  0.093349  0.102870  0.102170  0.090738  0.079603  0.085348  0.108260  0.121590  0.110170  0.099772  0.110680  0.120490  0.108170  0.089661  0.080469  0.071375  0.056550  0.044025  0.034716  0.021944  0.013138  0.021731  0.036755  0.038612  0.037395  0.054868  0.081262  0.095189  0.103210  0.116160  0.123680  0.119870  0.117170  0.121290  0.121720  0.116600  0.119160  0.132050  0.140990  0.140490  0.140160  0.140410  0.131940  0.117390  0.105350  0.094026  0.081690  0.076937  0.079931  0.072483  0.049529  0.037437  0.055302  0.080309  0.084460  0.077718  0.078299  0.081286  0.079861  0.078741  0.080177  0.080694  0.075972  0.061574  0.049633  0.065770  0.104570  0.127680  0.121930  0.114490  0.121070  0.124580  0.113510  0.101160  0.099417  0.099561  0.089603  0.073802  0.061959  0.056990  0.059722  0.070828  0.082530  0.082664  0.074968  0.078696  0.100980  0.123880  0.125840  0.110330  0.099874  0.106610  0.122540  0.135550  0.142150  0.141180  0.131880  0.118470  0.105610  0.097143  0.097995  0.103970  0.099432  0.084308  0.081017  0.094853  0.104170  0.100060  0.096941  0.101050  0.101670  0.096895  0.098871  0.110810  0.121140  0.121490  0.118470  0.119390  0.121020  0.119520  0.118540  0.121170  0.121110  0.112490  0.098898  0.085964  0.077119  0.077222  0.088069  0.099786  0.101890  0.098945  0.099020  0.100580  0.099915  0.099057  0.100050  0.100230  0.099140  0.099581  0.100740  0.099356  0.097805  0.103970  0.117230  0.124890  0.118710  0.105970  0.095947  0.084180  0.067712  0.059759  0.068964  0.084961  0.096782  0.103340  0.100200  0.086559  0.079638  0.091565  0.110070  0.119450  0.120370  0.119670  0.119460  0.120180  0.120030  0.118900  0.120130  0.121100  0.118380  0.118710  0.123100  0.119280  0.113140  0.128610  0.155420  0.158030  0.139970  0.134020  0.142500  0.143130  0.132550  0.120680  0.109130  0.096771  0.084392  0.075978  0.078375  0.090745  0.100760  0.101110  0.098931  0.099516  0.100040  0.099760  0.099741  0.099428  0.099062  0.104840  0.120360  0.135550  0.140170  0.139380  0.141310  0.140070  0.135900  0.143280  0.157250  0.159380  0.159110  0.171890  0.179800  0.167370  0.155640  0.158790  0.162130  0.159550  0.159560  0.158030  0.144470  0.127270  0.119550  0.111380  0.091350  0.077978  0.093373  0.119730  0.125620  0.117360  0.117350  0.122680  0.120270  0.116440  0.121440  0.123700  0.111700  0.100080  0.106380  0.122310  0.134080  0.145860  0.158190  0.161810  0.159750  0.159790  0.159350  0.159060  0.162570  0.159650  0.146060  0.138980  0.140690  0.133600  0.120240  0.117040  0.120520  0.120190  0.119890  0.120040  0.117300  0.121640  0.134740  0.141830  0.140140  0.139920  0.139530  0.137240  0.144610  0.157810  0.161290  0.159920  0.161200  0.157770  0.156350  0.174440  0.199850  0.213350  0.222830  0.225150  0.204690  0.180890  0.178570  0.178330  0.164020  0.161510  0.177720  0.184770  0.178900  0.177940  0.180890  0.179920  0.184230  0.202140  0.226530  0.247540  0.258820  0.260350  0.260120  0.261250  0.257740  0.245270  0.230740  0.220390  0.210450  0.194770  0.170530  0.147490  0.139720  0.142230  0.138310  0.134400  0.150940  0.176550  0.188970  0.202820  0.237210  0.275290  0.296820  0.309290  0.320720  0.323230  0.318460  0.319110  0.319670  0.300440  0.263630  0.232130  0.210260  0.179980  0.142560  0.115590  0.094258  0.060127  0.016044 -0.016796 -0.038068 -0.065850 -0.101770 -0.136110 -0.171420 -0.217190 -0.265140 -0.309620 -0.365020 -0.426180 -0.466880 -0.481430 -0.490440 -0.507520 -0.530370 -0.565610 -0.618820 -0.679510 -0.735340 -0.782390 -0.825770 -0.859190 -0.869580 -0.857890 -0.833140 -0.810840 -0.801370 -0.807350 -0.824040 -0.845110 -0.876190 -0.913010 -0.942750 -0.963050 -0.982630 -1.015600 -1.063800 -1.122100 -1.182000 -1.226000 -1.244200 -1.232400 -1.201400 -1.165200 -1.129100 -1.092900 -1.046400 -0.991720 -0.946850 -0.919230 -0.897770 -0.871770 -0.856200 -0.859710 -0.865430 -0.860690 -0.847520 -0.837260 -0.826140 -0.805260 -0.781160 -0.764460 -0.759980 -0.749560 -0.719570 -0.682960 -0.660920 -0.663460 -0.675970 -0.687170 -0.699880 -0.713440 -0.722240 -0.722330 -0.718800 -0.705840 -0.674030 -0.636930 -0.610280 -0.595140 -0.583930 -0.572390 -0.560630 -0.555160 -0.566970 -0.580660 -0.575030 -0.561480 -0.552170 -0.532980 -0.495800 -0.462130 -0.442560 -0.421160 -0.394730 -0.370910 -0.348320 -0.324280 -0.306150 -0.300200 -0.292050 -0.266030 -0.228900 -0.192220 -0.157410 -0.129510 -0.115610 -0.092651 -0.042385  0.000273  0.012189  0.028243  0.066939  0.094473  0.099647  0.109050  0.122760  0.123170  0.114500  0.101800  0.079945  0.055635  0.042294  0.038439  0.038891  0.046922  0.061700  0.074699  0.083261  0.095200  0.116640  0.141140  0.156920  0.158640  0.145800  0.127660  0.119860  0.121240  0.118040  0.115640  0.132800  0.158420  0.165530  0.158190  0.157380  0.162040  0.160370  0.161980  0.185160  0.222700  0.250620  0.259620  0.259980  0.260070  0.259600  0.260540  0.260940  0.254040  0.239700  0.225530  0.218250  0.218030  0.225590  0.239360  0.252500  0.262420  0.273600  0.288890  0.299610  0.299810  0.301000  0.312180  0.327390  0.338430  0.348270  0.362050  0.375040  0.382320  0.381600  0.373100  0.359400  0.345360  0.338540  0.339160  0.341210  0.340270  0.338020  0.342150  0.354090  0.369040  0.379770  0.381730  0.379600  0.379060  0.381110  0.380650  0.377540  0.381510  0.393660  0.403350  0.401540  0.396680  0.400930  0.404480  0.394410  0.381180  0.384620  0.400680  0.412910  0.424180  0.436910  0.442480  0.440530  0.439190  0.440420  0.440060  0.440760  0.440800  0.432080  0.417200  0.403960  0.397760  0.399070  0.408120  0.421740  0.425250  0.413620  0.401350  0.399950  0.400120  0.396510  0.404550  0.418060  0.419020  0.420240  0.439710  0.467960  0.490560  0.516350  0.539400  0.542690  0.540820  0.552180  0.568730  0.579110  0.594450  0.627080  0.674170  0.724610  0.771590  0.816920  0.865700  0.909580  0.923350  0.909350  0.883150  0.839960  0.755360  0.606460  0.416430  0.206720 -0.009432 -0.228770 -0.461570 -0.695590 -0.941970 -1.208500 -1.495000 -1.803600 -2.136300 -2.521100 -2.928600 -3.319900 -3.691400 -4.038800 -4.360200 -4.639100 -4.899200 -5.164100 -5.438400 -5.741700 -6.051500 -6.339200 -6.588900 -6.791400 -6.953200 -7.060100 -7.124100 -7.152300 -7.120900 -7.021100 -6.845800 -6.628900 -6.404000 -6.193500 -6.024400 -5.861300 -5.679400 -5.502600 -5.372300 -5.304400 -5.275700 -5.308300 -5.401200 -5.475500 -5.468800 -5.364000 -5.215600 -5.053000 -4.856900 -4.603500 -4.257500 -3.825200 -3.330000 -2.798600 -2.251500 -1.668700 -1.066200 
Shapelet   2   0.260960  0.266050  0.268140  0.271180  0.274080  0.273340  0.270440  0.268870  0.270680  0.273060  0.275990  0.278680  0.278700  0.278940  0.281100  0.284230  0.283750  0.279790  0.278970  0.281210  0.283880  0.286350  0.290850  0.296370  0.298570  0.301560  0.306990  0.311520  0.313450  0.314610  0.318810  0.321640  0.321180  0.321800  0.325690  0.331750  0.336510  0.342030  0.347340  0.348390  0.347760  0.347490  0.347190  0.344320  0.341460  0.343960  0.348930  0.353370  0.355730  0.357900  0.360980  0.361160  0.360310  0.360200  0.361130  0.361000  0.359190  0.361740  0.367070  0.371010  0.373470  0.375890  0.378210  0.377730  0.378530  0.381720  0.384150  0.387050  0.389510  0.391450  0.394030  0.399250  0.404160  0.402240  0.397990  0.395600  0.393890  0.391250  0.387620  0.386170  0.383720  0.379650  0.378080  0.379920  0.382520  0.380180  0.374920  0.370210  0.365010  0.360070  0.356360  0.357060  0.360250  0.360430  0.356030  0.347770  0.340950  0.336150  0.331290  0.326390  0.320640  0.316010  0.310940  0.305180  0.300730  0.297290  0.295520  0.293040  0.289190  0.283990  0.277600  0.274060  0.273630  0.274920  0.274910  0.271220  0.265090  0.256980  0.250080  0.245360  0.240840  0.235510  0.229520  0.225650  0.220810  0.212510  0.205710  0.202690  0.199790  0.192010  0.182630  0.175890  0.170240  0.165600  0.160670  0.154200  0.146420  0.138370  0.131000  0.123000  0.116180  0.111520  0.106900  0.101510  0.095671  0.092032  0.089802  0.086006  0.080388  0.074327  0.070728  0.068423  0.064752  0.059226  0.053132  0.049350  0.046884  0.044168  0.041813  0.039765  0.036292  0.028888  0.019692  0.012402  0.008292  0.006893  0.004888  0.000463 -0.004787 -0.008328 -0.010303 -0.012940 -0.015481 -0.017934 -0.020955 -0.023105 -0.024895 -0.029217 -0.037140 -0.044606 -0.048768 -0.051484 -0.053946 -0.056461 -0.059269 -0.061732 -0.062539 -0.062004 -0.063787 -0.069094 -0.074256 -0.075731 -0.074933 -0.076605 -0.081384 -0.086529 -0.091142 -0.096552 -0.102420 -0.106090 -0.108410 -0.111640 -0.113770 -0.112210 -0.108660 -0.106120 -0.103860 -0.101130 -0.100100 -0.101080 -0.101430 -0.100260 -0.100450 -0.103090 -0.105340 -0.107250 -0.111770 -0.117210 -0.118830 -0.118100 -0.120090 -0.123410 -0.123330 -0.120280 -0.118120 -0.118020 -0.118070 -0.117890 -0.119050 -0.122060 -0.125440 -0.126750 -0.124530 -0.120080 -0.117980 -0.120170 -0.122620 -0.122670 -0.122420 -0.122530 -0.121790 -0.122620 -0.127460 -0.132870 -0.135170 -0.135490 -0.135360 -0.135050 -0.135840 -0.138500 -0.141490 -0.143840 -0.146310 -0.148980 -0.151610 -0.153510 -0.152920 -0.150110 -0.148150 -0.148230 -0.148190 -0.148110 -0.150110 -0.152840 -0.153290 -0.152210 -0.152350 -0.153270 -0.152550 -0.150070 -0.147470 -0.145070 -0.141170 -0.135520 -0.131360 -0.131520 -0.134380 -0.136030 -0.135460 -0.134910 -0.135530 -0.135750 -0.134880 -0.135130 -0.136380 -0.134930 -0.131610 -0.131660 -0.134710 -0.137010 -0.139960 -0.143660 -0.143170 -0.140050 -0.140120 -0.139660 -0.134180 -0.130740 -0.133870 -0.136490 -0.135420 -0.136460 -0.140760 -0.143520 -0.144660 -0.147730 -0.151610 -0.152550 -0.151970 -0.153930 -0.156680 -0.156830 -0.157100 -0.159860 -0.161590 -0.161170 -0.162540 -0.165680 -0.168010 -0.171330 -0.176740 -0.180960 -0.182780 -0.184870 -0.188010 -0.190560 -0.192810 
Shapelet   3   0.169420  0.169420  0.103350  0.070320  0.103350  0.070320 -0.028781 -0.193950 -0.160920 -0.193950 -0.226980 -0.326080 -0.392150 -0.491250 -0.557320 -0.755520  0.764020  0.797060  0.830090  0.896160  0.896160  0.962230  1.061300  1.028300  0.929190  0.830090  0.797060  0.797060  0.830090  0.896160  0.929190  0.929190  0.863130  0.797060  0.830090  0.863130  0.863130  0.830090  0.797060  0.797060  0.830090  0.896160  0.995260  0.995260  0.863130  0.797060  0.863130  0.896160  0.830090  0.764020  0.697960  0.631890  0.664920  0.697960  0.764020  0.730990  0.730990  0.797060  0.830090  0.863130  0.863130  0.896160  0.896160  0.896160  0.830090  0.764020  0.830090  0.830090  0.830090  0.929190  0.962230  0.863130  0.797060  0.764020  0.797060  0.830090  0.830090  0.797060  0.797060  0.863130  0.863130  0.764020  0.764020  0.764020  0.598860  0.598860  0.730990  0.863130  0.863130  0.797060  0.697960  0.664920  0.598860  0.631890  0.764020  0.797060  0.830090  0.863130  0.730990  0.598860  0.664920  0.730990  0.730990  0.598860  0.598860  0.664920  0.697960  0.697960  0.664920  0.730990  0.797060  0.730990  0.697960  0.664920  0.764020  0.863130  0.797060  0.631890  0.532790  0.532790  0.565820  0.730990  0.797060  0.830090  0.830090  0.730990  0.631890  0.598860  0.565820  0.499760  0.499760  0.565820  0.532790  0.565820  0.631890  0.598860  0.631890  0.697960  0.730990  0.697960  0.631890  0.598860  0.664920  0.664920  0.631890  0.598860  0.598860  0.631890  0.631890  0.565820  0.466720  0.466720  0.499760  0.565820  0.565820  0.466720  0.367620  0.433690  0.664920  0.764020  0.697960  0.697960  0.730990  0.664920  0.697960  0.697960  0.664920  0.631890  0.532790  0.499760  0.565820  0.598860  0.565820  0.532790  0.631890  0.598860  0.598860  0.598860  0.565820  0.664920  0.730990  0.730990  0.730990  0.764020  0.730990  0.565820  0.532790  0.532790  0.565820  0.532790  0.532790  0.532790  0.532790  0.565820  0.565820  0.532790  0.598860  0.664920  0.730990  0.730990  0.730990  0.730990  0.730990  0.664920  0.631890  0.598860  0.631890  0.664920  0.598860  0.532790  0.565820  0.532790  0.433690  0.433690  0.466720  0.565820  0.598860  0.598860  0.631890  0.631890  0.664920  0.631890  0.631890  0.664920  0.565820  0.499760  0.565820  0.664920  0.598860  0.499760  0.466720  0.466720  0.466720  0.466720  0.466720  0.532790  0.631890  0.664920  0.598860  0.565820  0.532790  0.565820  0.565820  0.598860  0.532790  0.499760  0.499760  0.598860  0.664920  0.664920  0.598860  0.565820  0.466720  0.499760  0.598860  0.664920  0.631890  0.532790  0.466720  0.433690  0.466720  0.565820  0.598860  0.565820  0.532790  0.499760  0.565820  0.565820  0.631890  0.664920  0.598860  0.499760  0.433690  0.400660  0.367620  0.400660  0.433690  0.433690  0.466720  0.499760  0.433690  0.433690  0.532790  0.598860  0.598860  0.631890  0.598860  0.631890  0.631890  0.598860  0.532790  0.433690  0.400660  0.400660  0.433690  0.466720  0.400660  0.400660  0.400660  0.367620  0.400660  0.499760  0.532790  0.499760  0.532790  0.565820  0.532790  0.532790  0.664920  0.697960  0.565820  0.433690  0.433690  0.565820  0.532790  0.499760  0.367620  0.367620  0.466720  0.532790  0.565820  0.697960  0.664920  0.499760  0.466720  0.400660  0.466720  0.466720  0.499760  0.499760  0.433690  0.400660  0.433690  0.466720  0.433690  0.433690  0.400660  0.433690  0.499760  0.499760  0.532790  0.466720  0.499760  0.532790  0.499760  0.499760  0.466720  0.499760  0.499760  0.433690  0.367620  0.367620  0.367620  0.367620  0.367620  0.367620  0.433690  0.400660  0.235490  0.169420  0.301550  0.433690  0.565820  0.532790  0.565820  0.565820  0.532790  0.532790  0.466720  0.433690  0.400660  0.400660  0.400660  0.466720  0.565820  0.631890  0.565820  0.532790  0.532790  0.499760  0.499760  0.499760  0.532790  0.433690  0.334590  0.334590  0.466720  0.466720  0.400660  0.400660  0.400660  0.400660  0.433690  0.466720  0.400660  0.400660  0.466720  0.466720  0.400660  0.400660  0.433690  0.466720  0.532790  0.565820  0.532790  0.532790  0.499760  0.499760  0.565820  0.532790  0.466720  0.400660  0.400660  0.433690  0.466720  0.400660  0.400660  0.400660  0.400660  0.367620  0.301550  0.301550  0.367620  0.334590  0.301550  0.268520  0.235490  0.169420  0.103350  0.004253 -0.061815 -0.127880 -0.193950 -0.160920 -0.260020 -0.392150 -0.491250 -0.425180 -0.392150 -0.425180 -0.458220 -0.425180 -0.458220 -0.557320 -0.590350 -0.623390 -0.557320 -0.590350 -0.656420 -0.590350 -0.557320 -0.623390 -0.722490 -0.689450 -0.623390 -0.590350 -0.656420 -0.722490 -0.656420 -0.491250 -0.425180 -0.293050 -0.293050 -0.359120 -0.392150 -0.392150 -0.392150 -0.392150 -0.392150 -0.359120 -0.425180 -0.623390 -0.755520 -0.821590 -0.755520 -0.821590 -0.920690 -0.953720 -1.052800 -1.118900 -1.019800 -0.887650 -0.788550 -0.788550 -0.722490 -0.656420 -0.557320 -0.392150 -0.293050 -0.193950 -0.094848 -0.094848 -0.160920 -0.226980 -0.293050 -0.226980 -0.127880 -0.127880 -0.293050 -0.425180 -0.458220 -0.491250 -0.491250 -0.458220 -0.293050 -0.193950 -0.160920 -0.226980 -0.160920 -0.094848 -0.061815 -0.127880 -0.160920 -0.094848 -0.193950 -0.226980 -0.226980 -0.226980 -0.326080 -0.260020 -0.160920 -0.061815  0.037286  0.103350  0.103350  0.070320  0.070320  0.169420  0.235490  0.334590  0.334590  0.301550  0.400660  0.499760  0.565820  0.532790  0.532790  0.532790  0.499760  0.532790  0.565820  0.764020  0.929190  0.863130  0.664920  0.532790  0.565820  0.697960  0.664920  0.532790  0.499760  0.532790  0.565820  0.565820  0.532790  0.598860  0.631890  0.664920  0.631890  0.631890  0.664920  0.697960  0.730990  0.730990  0.797060  0.730990  0.598860  0.598860  0.598860  0.565820  0.466720  0.433690  0.400660  0.466720  0.631890  0.764020  0.730990  0.664920  0.532790  0.499760  0.598860  0.565820  0.565820  0.631890  0.664920  0.598860  0.631890  0.631890  0.631890  0.631890  0.664920  0.565820  0.499760  0.433690  0.400660  0.301550  0.202450  0.235490  0.202450  0.037286 -0.061815 -0.061815 -0.160920 -0.326080 -0.590350 -0.854620 -1.085900 -1.284100 -1.449200 -1.614400 -1.977800 -2.407200 -2.902700 -3.266100 -3.497300 -3.662500 -3.728500 -3.662500 -3.728500 -3.860700 -3.893700 -3.827600 -3.827600 -4.091900 -4.455300 -4.785600 -5.116000 -5.347200 -5.578400 -5.644500 -5.380200 -4.851700 -4.290100 -3.530300 -2.737500 
Shapelet   4   0.066330  0.101700  0.101700  0.084016  0.066330  0.066330  0.066330  0.101700  0.119390  0.084016  0.066330  0.101700  0.137070  0.137070  0.066330 -0.004413 -0.075157 -0.110530 -0.092842 -0.075157 -0.092842 -0.110530 -0.110530 -0.145900 -0.216640 -0.198960 -0.128210 -0.075157 -0.075157 -0.057471 -0.039785 -0.039785 -0.022099 -0.004413  0.013272  0.030958 -0.004413 -0.092842 -0.110530 -0.092842 -0.057471 -0.128210 -0.216640 -0.269700 -0.252010 -0.198960 -0.092842 -0.110530 -0.128210 -0.110530 -0.145900 -0.181270 -0.216640 -0.234330 -0.234330 -0.216640 -0.198960 -0.234330 -0.216640 -0.163590 -0.110530 -0.092842 -0.092842 -0.075157 -0.110530 -0.145900 -0.145900 -0.092842 -0.075157 -0.057471 -0.022099 -0.039785  0.013272  0.030958  0.013272 -0.057471 -0.057471 -0.057471 -0.004413 -0.022099 -0.092842 -0.163590 -0.163590 -0.075157 -0.004413 -0.022099 -0.022099 -0.022099 -0.004413  0.013272 -0.004413 -0.039785 -0.057471 -0.092842 -0.110530 -0.145900 -0.163590 -0.163590 -0.163590 -0.092842 -0.057471 -0.004413  0.013272 -0.022099 -0.022099 -0.004413  0.013272  0.013272  0.066330  0.101700  0.030958  0.013272  0.013272  0.013272  0.013272  0.048644  0.101700  0.066330  0.048644  0.048644  0.013272  0.030958  0.048644  0.066330  0.030958  0.013272  0.066330  0.084016  0.030958  0.013272  0.013272 -0.004413 -0.004413 -0.039785 -0.039785 -0.004413  0.013272  0.013272  0.013272  0.048644  0.101700  0.137070  0.101700  0.066330  0.101700  0.119390  0.101700  0.119390  0.119390  0.066330  0.048644  0.048644  0.084016  0.084016  0.013272 -0.022099 -0.022099 -0.039785 -0.075157 -0.110530 -0.092842 -0.039785 -0.039785 -0.092842 -0.110530 -0.092842 -0.057471 -0.004413  0.013272  0.030958  0.048644  0.084016  0.154760  0.243190  0.207820  0.119390  0.084016  0.030958  0.066330  0.137070  0.190130  0.172440  0.137070  0.137070  0.119390  0.119390  0.154760  0.172440  0.154760  0.101700  0.030958  0.030958  0.048644  0.084016  0.101700  0.066330 -0.004413 -0.092842 -0.110530 -0.075157 -0.022099  0.013272  0.013272  0.048644  0.084016  0.048644  0.066330  0.137070  0.154760  0.172440  0.190130  0.172440  0.172440  0.172440  0.172440  0.119390  0.048644  0.013272  0.013272  0.013272  0.013272 -0.004413 -0.004413  0.013272 -0.004413  0.013272  0.066330  0.137070  0.172440  0.190130  0.172440  0.190130  0.172440  0.154760  0.154760  0.137070  0.066330  0.048644  0.084016  0.066330  0.030958  0.013272  0.013272  0.048644  0.101700  0.101700  0.137070  0.172440  0.084016  0.030958  0.066330  0.154760  0.225500  0.225500  0.225500  0.225500  0.190130  0.225500  0.260870  0.260870  0.225500  0.154760  0.119390  0.137070  0.154760  0.172440  0.172440  0.190130  0.190130  0.190130  0.137070  0.066330  0.119390  0.137070  0.084016  0.066330  0.048644  0.013272  0.013272  0.013272  0.030958  0.066330  0.048644 -0.004413 -0.004413  0.101700  0.243190  0.278560  0.260870  0.278560  0.260870  0.225500  0.207820  0.225500  0.243190  0.243190  0.225500  0.172440  0.190130  0.207820  0.190130  0.137070  0.084016  0.030958  0.013272 -0.022099 -0.022099  0.030958  0.030958  0.013272  0.048644  0.119390  0.190130  0.207820  0.190130  0.190130  0.137070  0.119390  0.101700  0.048644  0.048644  0.048644  0.048644  0.030958  0.030958  0.030958  0.048644  0.119390  0.154760  0.190130  0.190130  0.207820  0.190130  0.190130  0.172440  0.137070  0.084016  0.084016  0.101700  0.119390  0.119390  0.154760  0.190130  0.207820  0.190130  0.172440  0.225500  0.278560  0.243190  0.207820  0.172440  0.137070  0.137070  0.066330 -0.004413 -0.057471 -0.110530 -0.181270 -0.216640 -0.287390 -0.340440 -0.411190 -0.411190 -0.375810 -0.358130 -0.393500 -0.375810 -0.340440 -0.358130 -0.358130 -0.287390 -0.216640 -0.216640 -0.252010 -0.216640 -0.163590 -0.163590 -0.163590 -0.128210 -0.075157 -0.057471 -0.075157 -0.092842 -0.075157 -0.004413  0.030958  0.119390  0.154760  0.119390  0.137070  0.154760  0.207820  0.207820  0.172440  0.137070  0.066330 -0.022099 -0.110530 -0.163590 -0.198960 -0.252010 -0.340440 -0.375810 -0.393500 -0.411190 -0.375810 -0.340440 -0.358130 -0.375810 -0.375810 -0.411190 -0.411190 -0.375810 -0.305070 -0.198960 -0.110530 -0.057471 -0.092842 -0.110530 -0.092842 -0.022099  0.030958  0.084016  0.066330  0.013272 -0.004413 -0.110530 -0.198960 -0.234330 -0.216640 -0.216640 -0.216640 -0.234330 -0.181270 -0.128210 -0.075157 -0.075157 -0.039785  0.013272 -0.004413 -0.004413  0.013272  0.013272  0.013272  0.048644  0.048644  0.013272 -0.022099 -0.057471 -0.057471 -0.057471 -0.039785  0.013272  0.013272  0.066330  0.084016  0.048644  0.066330  0.101700  0.084016  0.066330  0.013272  0.013272  0.030958  0.066330  0.137070  0.225500  0.278560  0.225500  0.172440  0.137070  0.172440  0.243190  0.260870  0.225500  0.225500  0.260870  0.243190  0.207820  0.207820  0.225500  0.225500  0.190130  0.137070  0.048644  0.084016  0.119390  0.137070  0.172440  0.225500  0.225500  0.207820  0.243190  0.260870  0.278560  0.243190  0.190130  0.154760  0.137070  0.190130  0.243190  0.260870  0.225500  0.172440  0.154760  0.190130  0.190130  0.190130  0.190130  0.207820  0.172440  0.154760  0.137070  0.137070  0.172440  0.207820  0.172440  0.084016 -0.004413 -0.092842 -0.269700 -0.534990 -0.747220 -0.994820 -1.242400 -1.419300 -1.525400 -1.666900 -1.896800 -2.126700 -2.392000 -2.639600 -2.851800 -2.975600 -3.028700 -3.081700 -3.064100 -2.957900 -2.745700 -2.586500 -2.515800 -2.515800 -2.604200 -2.781100 -2.869500 -2.851800 -2.869500 -2.975600 -3.240900 -3.576900 -3.983700 -4.443500 -4.797300 -4.974100 -4.726500 
Shapelet   6   1.079400  1.076200  1.089100  1.107900  1.106000  1.111100  1.132200  1.139900  1.158900  1.183000  1.132500  1.087300  1.189900  1.226300  0.917170  0.729260  0.707170  0.615700  0.580980  0.592280  0.610810  0.635030  0.640130  0.633920  0.660210  0.674710  0.614440  0.546630  0.545020  0.554080  0.529150  0.531320  0.590270  0.639930  0.631450  0.592730  0.565370  0.553710  0.548870  0.561010  0.597580  0.635140  0.642100  0.613160  0.573030  0.553580  0.557950  0.555340  0.543550  0.560810  0.600830  0.614830  0.611200  0.628110  0.641450  0.622760  0.611940  0.634930  0.652900  0.639940  0.608110  0.566930  0.530930  0.520860  0.524780  0.522090  0.530270  0.566490  0.605200  0.613290  0.586040  0.544430  0.522510  0.534830  0.552940  0.553110  0.555740  0.574470  0.586770  0.583950  0.583480  0.582510  0.566280  0.548380  0.550770  0.560260  0.553550  0.545560  0.562350  0.582820  0.573550  0.554360  0.553560  0.551640  0.533490  0.511640  0.472360  0.409760  0.376890  0.395830  0.413380  0.408320  0.416510  0.440150  0.456410  0.478530  0.516110  0.543690  0.554690  0.571350  0.586290  0.566910  0.526640  0.524720  0.576070  0.622090  0.620370  0.603320  0.611130  0.623670  0.604970  0.567600  0.542600  0.527270  0.507530  0.494600  0.496080  0.490620  0.470270  0.460150  0.466980  0.457630  0.420650  0.402770  0.440760  0.496920  0.511070  0.484990  0.465910  0.475920  0.495160  0.490120  0.456020  0.433990  0.450650  0.466780  0.449020  0.438600  0.473300  0.511100  0.501640  0.463020  0.434320  0.417300  0.401620  0.402870  0.433610  0.467950  0.474200  0.461650  0.461860  0.479960  0.495540  0.498530  0.493200  0.477080  0.444650  0.409820  0.397770  0.413260  0.433880  0.433350  0.410990  0.404670  0.447460  0.508560  0.525130  0.500090  0.496010  0.528260  0.541550  0.506230  0.469310  0.474400  0.496030  0.499130  0.494990  0.496610  0.488090  0.467180  0.448640  0.433520  0.430720  0.451530  0.466750  0.450270  0.437080  0.455130  0.473040  0.468590  0.454010  0.434490  0.425760  0.454720  0.492770  0.480680  0.434600  0.422150  0.448750  0.466360  0.462680  0.466300  0.486090  0.495780  0.477710  0.449760  0.437340  0.438290  0.436280  0.434860  0.441120  0.439130  0.419500  0.407910  0.423600  0.448550  0.464280  0.470360  0.465530  0.460910  0.472590  0.473930  0.431100  0.377590  0.364730  0.390610  0.442460  0.512330  0.553610  0.539760  0.524130  0.543780  0.560900  0.554900  0.551690  0.554080  0.552010  0.560930  0.580610  0.587290  0.582750  0.582860  0.582450  0.581590  0.594490  0.613330  0.617890  0.607160  0.589040  0.574630  0.583090  0.607730  0.607980  0.571410  0.528980  0.497630  0.473280  0.467500  0.485920  0.502040  0.497170  0.489350  0.498180  0.516940  0.528780  0.526820  0.513300  0.493510  0.474170  0.463260  0.464190  0.475290  0.496330  0.528210  0.567930  0.604340  0.615850  0.585250  0.527720  0.490140  0.505850  0.552940  0.582080  0.583940  0.583180  0.571600  0.529880  0.496490  0.509600  0.524320  0.492900  0.449990  0.437100  0.437560  0.437430  0.452110  0.472680  0.471210  0.457500  0.466220  0.491740  0.490360  0.452390  0.423280  0.435090  0.461300  0.464580  0.447210  0.423390  0.385640  0.338460  0.321100  0.353050  0.400480  0.432370  0.452310  0.467790  0.484040  0.502540  0.501770  0.475130  0.466720  0.490450  0.489500  0.449660  0.427250  0.436650  0.441710  0.434940  0.420200  0.385400  0.351250  0.355530  0.384330  0.402390  0.415450  0.434730  0.434610  0.403410  0.389870  0.432870  0.488010  0.501180  0.495570  0.500040  0.487650  0.465540  0.489670  0.553540  0.600030  0.613970  0.599170  0.548770  0.497860  0.489300  0.495500  0.478290  0.454570  0.439440  0.421160  0.406710  0.407710  0.403970  0.383430  0.369150  0.381020  0.414460  0.450910  0.467530  0.454710  0.436940  0.446190  0.477670  0.497230  0.481200  0.439130  0.398100  0.375060  0.374950  0.384240  0.380470  0.362340  0.347350  0.333150  0.305780  0.290600  0.300610  0.286070  0.219530  0.142320  0.076040 -0.007233 -0.092758 -0.125980 -0.108070 -0.089167 -0.095089 -0.117620 -0.150510 -0.185200 -0.188770 -0.144470 -0.091622 -0.067835 -0.056103 -0.038289 -0.019474  0.019480  0.083608  0.117640  0.111340  0.132830  0.191160  0.241000  0.298210  0.387630  0.463050  0.509460  0.575240  0.642830  0.654480  0.639280  0.673340  0.758620  0.842990  0.902370  0.944120  0.979590  1.003400  0.995380  0.952920  0.891000  0.808150  0.704790  0.621580  0.590880  0.581380  0.561190  0.554390  0.575470  0.606670  0.644030  0.682950  0.707010  0.738650  0.815580  0.903870  0.946910  0.972100  1.025100  1.083900  1.108500  1.108000  1.110000  1.112500  1.097600  1.057900  1.005000  0.955410  0.917320  0.897420  0.900430  0.926830  0.966340  0.989870  0.991600  1.009500  1.050400  1.049600  0.991570  0.957770  0.964260  0.944420  0.905520  0.907760  0.944080  0.991470  1.072400  1.160300  1.193500  1.198800  1.232600  1.270400  1.262100  1.206600  1.127500  1.052500  1.000700  0.949580  0.883760  0.845210  0.847840  0.836810  0.796240  0.790710  0.845410  0.896840  0.900960  0.881860  0.862800  0.821770  0.748610  0.690520  0.685780  0.724580  0.779930  0.818330  0.813650  0.801880  0.843810  0.900490  0.881950  0.810740  0.778800  0.797950  0.815970  0.810710  0.786870  0.742070  0.674820  0.586730  0.501480  0.466270  0.492880  0.533370  0.549470  0.565070  0.606600  0.651530  0.673260  0.686740  0.718290  0.754150  0.764310  0.757890  0.768830  0.804890  0.839730  0.859520  0.876400  0.895520  0.907400  0.907170  0.891740  0.846800  0.774860  0.715180  0.697460  0.708560  0.727440  0.756120  0.797480  0.834410  0.856140  0.872800  0.884980  0.870100  0.819270  0.762750  0.732030  0.726580  0.729230  0.719080  0.681380  0.626630  0.587540  0.583440  0.601660  0.613860  0.596630  0.554980  0.525290  0.532580  0.561720  0.581440  0.579100  0.557520  0.522590  0.490730  0.485450  0.511990  0.548350  0.572450  0.584220  0.587190  0.577140  0.558630  0.541580  0.523650  0.503690  0.493870  0.495750  0.489520  0.466690  0.444210  0.436200  0.436310  0.441830  0.463910  0.491490  0.493010  0.473520  0.460700  0.442190  0.402110  0.377870  0.395100  0.413770  0.409080  0.414350  0.439060  0.434890  0.385800  0.350230  0.361820  0.378900  0.386770  0.424770  0.467290  0.435670  0.352960  0.312540  0.327070  0.359970  0.410030  0.462480  0.469750  0.426780  0.373100  0.327890  0.294580  0.292410  0.325250  0.352200  0.340160  0.320510  0.331480  0.350050  0.349150  0.353720  0.373860  0.380540  0.378610  0.405680  0.447460  0.449250  0.414890  0.406090  0.448950  0.508270  0.558070  0.616580  0.689020  0.750880  0.793390  0.827580  0.858670  0.873530  0.875000  0.874900  0.860740  0.834760  0.833700  0.893120  0.994450  1.127700  1.325900  1.539900  1.697600  1.831700  2.000700  2.172400  2.320700  2.505900  2.720700  2.901600  3.070900  3.263200  3.443800  3.593400  3.744100  3.865300  3.886700  3.820300  3.733200  3.627100  3.464900  3.280300  3.142400  3.065400  2.961400  2.777300  2.546400  2.282500  1.946600  1.504000  1.031300  0.577500  0.083059 -0.510050 -1.194700 -1.929700 -2.683500 -3.374400 -3.943800 -4.422900 -4.829900 -5.132100 -5.298000 -5.345800 -5.270000 -5.033200 -4.681600 -4.347700 -4.097900 -3.863600 -3.600200 -3.347900 -3.136000 -2.966500 -2.872400 -2.787700 -2.561200 -2.158700 -1.680400 -1.229900 -0.821150 -0.475200 -0.194690  0.059111  0.251590  0.289300  0.095377 -0.271190 -0.704920 -1.164100 -1.579500 -1.864500 -1.994700 -2.033400 -2.017200 -1.952000 -1.931000 -2.003300 -2.093400 -2.106200 -2.072500 -2.080500 -2.105600 


; cmd = /home/grad00/soren885/capstone/ShapeletResearch/Execs/FastShapelet /home/grad00/soren885/capstone/Shapelet_Datasets/UCR_Master/CinC_ECG_torso_TRAIN 4 40 820 1 2 10 manhattan 0 0 10 ./replications/CinC_ECG_torso/CinC_ECG_torso_manhattan_unnormed_NOCID_REP07_tree.txt ./replications/CinC_ECG_torso/CinC_ECG_torso_manhattan_unnormed_NOCID_REP07_time.txt
; time =>  406.311  14.893  75.207   5.363 304.593 
; command = /home/grad00/soren885/capstone/ShapeletResearch/Execs/Classify /home/grad00/soren885/capstone/Shapelet_Datasets/UCR_Master/CinC_ECG_torso_TEST 4 1380 manhattan 0 0 ./replications/CinC_ECG_torso/CinC_ECG_torso_manhattan_unnormed_NOCID_REP07_tree.txt ./replications/CinC_ECG_torso/CinC_ECG_torso_manhattan_unnormed_NOCID_REP07_acc.txt
; accuracy= 56.304   Correct:777 , Wrong: 603


;   == Confusion Matrix ==
;   real |   3    2    4    1 
;   -----+------------------------
;   p  3 | 166   95    5   50 
;   p  2 |  75  172    9   64 
;   p  4 |  93   43  293   90 
;   p  1 |   9   32   38  146 

