;Shapelet Tree 

;random seed:1508721410, rand()=1418254400, rand()=1704688466
;command = /home/grad00/soren885/capstone/ShapeletResearch/Execs/FastShapelet /home/grad00/soren885/capstone/Shapelet_Datasets/UCR_Master/CinC_ECG_torso_TRAIN 4 40 820 1 2 10 euclidean 0 0 10 ./replications/CinC_ECG_torso/CinC_ECG_torso_euclidean_unnormed_NOCID_REP25_tree.txt ./replications/CinC_ECG_torso/CinC_ECG_torso_euclidean_unnormed_NOCID_REP25_time.txt 

;Local Class:   0  1  2  3 
;Real  Class:   1  3  4  2 

;Node ID class   obj  pos  len  dist_th 
TreeSize: 12 
NonL  1    --      9   67  693  36.5359 ==>   1  12   0  13  /   4   0  10   0 
NonL  2    --      4  1146  417   4.7131 ==>   1   0   0  11  /   0  12   0   2 
NonL  3    --     10    0  683  35.5225 ==>   4   0   0   0  /   0   0  10   0 
Leaf  4     2    
NonL  5    --     10  738  725  21.9017 ==>   0   0   0   2  /   0  12   0   0 
Leaf  6     1    
Leaf  7     4    
Leaf 10     2    
Leaf 11     3    

;Shapelet id   <data>
Shapelet   1  -0.110770 -0.111880 -0.119810 -0.125150 -0.124110 -0.126870 -0.136560 -0.143070 -0.142130 -0.141610 -0.145920 -0.149080 -0.146420 -0.142030 -0.141620 -0.144950 -0.148690 -0.150280 -0.148700 -0.147710 -0.151400 -0.155260 -0.153070 -0.148790 -0.148390 -0.149270 -0.148920 -0.150910 -0.155480 -0.157090 -0.153890 -0.149910 -0.148380 -0.149020 -0.151830 -0.156780 -0.160770 -0.162560 -0.167060 -0.175640 -0.180850 -0.180380 -0.181610 -0.186020 -0.187600 -0.186510 -0.186660 -0.185850 -0.181610 -0.177040 -0.173910 -0.170230 -0.166860 -0.167100 -0.169270 -0.167860 -0.163300 -0.161480 -0.162000 -0.159580 -0.155530 -0.154640 -0.155410 -0.155090 -0.156560 -0.160950 -0.164840 -0.168670 -0.175810 -0.183920 -0.186790 -0.185260 -0.187120 -0.194700 -0.201000 -0.200290 -0.195730 -0.192840 -0.192510 -0.193040 -0.193030 -0.192580 -0.192850 -0.193370 -0.192510 -0.192040 -0.194990 -0.198870 -0.199870 -0.198790 -0.195590 -0.189620 -0.186410 -0.189910 -0.192890 -0.189280 -0.185410 -0.186180 -0.187100 -0.186640 -0.189250 -0.195140 -0.198960 -0.197710 -0.192900 -0.188120 -0.186410 -0.186600 -0.186380 -0.186560 -0.187200 -0.186210 -0.185500 -0.189040 -0.192770 -0.190710 -0.185840 -0.182120 -0.178860 -0.179300 -0.186570 -0.193230 -0.193300 -0.193480 -0.197800 -0.201840 -0.205540 -0.210320 -0.211130 -0.206740 -0.204460 -0.205390 -0.202910 -0.197980 -0.197680 -0.201060 -0.199740 -0.192040 -0.185830 -0.185630 -0.187270 -0.186820 -0.186070 -0.186720 -0.186960 -0.186230 -0.186280 -0.188590 -0.193200 -0.197630 -0.199420 -0.199200 -0.199110 -0.199140 -0.198820 -0.199380 -0.199680 -0.197150 -0.193110 -0.191700 -0.193280 -0.193580 -0.191870 -0.192440 -0.196440 -0.199360 -0.199260 -0.199220 -0.199300 -0.198190 -0.199450 -0.203720 -0.205580 -0.205070 -0.207690 -0.211730 -0.212360 -0.211130 -0.207750 -0.199610 -0.192970 -0.195050 -0.200160 -0.200140 -0.198110 -0.198950 -0.199920 -0.198830 -0.198430 -0.199950 -0.199610 -0.195760 -0.192640 -0.192520 -0.192870 -0.192750 -0.193430 -0.192720 -0.188840 -0.185850 -0.186090 -0.188230 -0.192850 -0.198220 -0.198380 -0.193880 -0.193410 -0.198700 -0.203300 -0.206040 -0.209850 -0.212910 -0.212000 -0.210110 -0.212310 -0.216790 -0.217370 -0.212740 -0.209320 -0.212140 -0.217020 -0.217210 -0.212960 -0.208720 -0.205290 -0.201260 -0.198490 -0.198690 -0.199630 -0.199180 -0.198570 -0.199410 -0.199730 -0.197410 -0.193340 -0.189220 -0.186100 -0.185440 -0.188630 -0.192570 -0.191590 -0.185750 -0.180820 -0.181140 -0.185390 -0.189870 -0.193050 -0.196280 -0.200940 -0.204790 -0.205650 -0.205400 -0.205540 -0.205180 -0.204970 -0.206240 -0.205620 -0.201270 -0.199180 -0.202900 -0.207960 -0.211270 -0.213110 -0.210830 -0.203280 -0.196180 -0.193150 -0.192330 -0.192990 -0.193800 -0.191410 -0.187320 -0.186150 -0.186620 -0.186030 -0.187550 -0.191710 -0.193680 -0.192920 -0.192700 -0.192780 -0.192390 -0.194600 -0.198830 -0.198430 -0.191040 -0.182690 -0.179410 -0.180160 -0.180720 -0.180300 -0.180220 -0.180420 -0.180380 -0.180360 -0.180360 -0.180190 -0.180530 -0.180690 -0.178610 -0.174150 -0.169680 -0.167400 -0.167300 -0.169480 -0.173780 -0.176240 -0.172870 -0.168140 -0.169390 -0.173730 -0.174440 -0.174330 -0.178070 -0.181620 -0.180940 -0.177830 -0.173670 -0.169300 -0.167640 -0.168070 -0.166030 -0.161480 -0.157780 -0.153680 -0.146160 -0.136980 -0.130510 -0.126840 -0.122950 -0.119110 -0.116220 -0.112150 -0.107000 -0.105380 -0.106410 -0.102340 -0.094010 -0.090606 -0.093199 -0.094333 -0.091054 -0.087293 -0.084568 -0.079855 -0.070128 -0.056339 -0.045071 -0.039791 -0.036494 -0.032378 -0.029928 -0.030374 -0.029031 -0.024364 -0.020107 -0.017066 -0.013554 -0.009184 -0.005651 -0.002782  0.001993  0.009085  0.017365  0.024691  0.029760  0.032468  0.032685  0.031394  0.027367  0.023363  0.026271  0.034257  0.039649  0.042486  0.051061  0.063174  0.070882  0.078370  0.089560  0.101190  0.112250  0.125930  0.141630  0.156040  0.171650  0.186530  0.195630  0.202110  0.209710  0.215390  0.214540  0.211640  0.214110  0.221280  0.228450  0.231890  0.233840  0.238780  0.244130  0.244030  0.236460  0.225670  0.214680  0.203110  0.192310  0.178420  0.157860  0.135450  0.116180  0.097925  0.078329  0.063454  0.053308  0.041632  0.031569  0.027078  0.024663  0.020589  0.019647  0.026320  0.036783  0.048680  0.059990  0.068935  0.075890  0.080487  0.082525  0.082320  0.082542  0.082612  0.077793  0.067516  0.055819  0.046866  0.039887  0.032300  0.025282  0.020981  0.018817  0.015050  0.008068  0.000632 -0.006615 -0.014592 -0.022118 -0.027020 -0.030168 -0.034102 -0.037423 -0.040608 -0.047995 -0.060402 -0.073321 -0.081810 -0.085629 -0.087679 -0.091754 -0.100940 -0.113710 -0.125520 -0.133970 -0.141130 -0.149140 -0.155860 -0.159750 -0.163010 -0.166780 -0.170270 -0.174240 -0.180950 -0.189450 -0.196790 -0.203410 -0.211260 -0.219560 -0.225370 -0.228730 -0.233580 -0.241850 -0.250710 -0.256070 -0.256350 -0.254480 -0.254910 -0.258620 -0.261950 -0.262130 -0.261460 -0.261700 -0.260300 -0.255070 -0.249710 -0.249930 -0.254080 -0.257700 -0.261650 -0.266200 -0.268010 -0.267600 -0.268780 -0.268230 -0.263290 -0.262050 -0.266510 -0.267310 -0.262360 -0.260050 -0.261970 -0.262060 -0.261930 -0.266450 -0.272480 -0.274150 -0.273190 -0.275560 -0.279590 -0.282030 -0.286890 -0.295150 -0.300010 -0.299420 -0.299520 -0.299390 -0.292820 -0.285150 -0.284910 -0.288620 -0.287260 -0.281960 -0.280550 -0.281460 -0.277520 -0.269320 -0.263480 -0.261520 -0.260880 -0.262850 -0.266940 -0.270220 -0.274530 -0.281810 -0.288830 -0.292190 -0.294870 -0.299200 -0.300940 -0.297890 -0.293870 -0.291580 -0.287240 -0.281070 -0.281180 -0.285930 -0.285360 -0.280860 -0.280190 -0.280120 -0.275940 -0.273690 -0.274390 -0.271370 -0.267840 -0.270680 -0.275730 -0.275210 -0.271260 -0.267870 -0.261570 -0.252400 -0.248280 -0.252390 -0.255490 -0.251530 -0.249210 -0.253370 -0.256570 -0.255530 -0.256910 -0.262900 -0.267250 -0.267900 -0.267880 -0.268140 -0.267850 -0.267350 -0.268990 -0.273130 -0.276110 -0.273930 -0.266630 -0.259330 -0.255900 -0.254170 -0.249290 -0.241060 -0.235640 -0.235940 -0.236680 -0.231200 -0.220290 -0.209260 -0.198540 -0.186790 -0.180540 -0.183510 -0.186930 -0.186940 -0.188090 -0.192430 -0.195930 -0.199680 -0.203870 -0.193710 -0.170530 -0.141370 -0.097939 -0.031831  0.054217  0.138180  0.224910  0.327020  0.442420  0.573460  0.714270  0.875210  1.049300  1.225000  1.414600  1.624900  1.872400  2.138800  2.405100  2.666000  2.906200  3.139300  3.367500  3.604600  3.856500  4.111300  4.386800  4.671500  4.961400  5.252600  5.527800  5.782100  5.985000  6.155400  6.329700  6.504800  6.654100  6.744600  6.802000  6.841100  6.854300  6.856800  6.842300  6.801800  6.736600  6.661500  6.588400  6.509700  6.433300  6.357100  6.225400  6.002100  5.683800  5.309200  4.912300  4.485100  4.023900  3.489900  2.859200  2.133900  1.322800  0.432550 -0.548460 -1.545400 -2.434200 -3.115500 -3.546700 -3.770400 -3.846000 -3.851000 -3.833200 -3.800500 -3.758600 -3.700000 -3.630700 -3.546400 -3.447900 -3.348000 -3.247800 
Shapelet   2   0.131600  0.131160  0.134760  0.140550  0.143400  0.145750  0.150640  0.157160  0.161950  0.164320  0.167160  0.169690  0.171780  0.174520  0.178850  0.184560  0.189420  0.194660  0.199910  0.203520  0.205610  0.205620  0.205110  0.204960  0.206780  0.209850  0.210270  0.209400  0.209210  0.210200  0.209990  0.208310  0.210620  0.215920  0.219970  0.222280  0.226020  0.232260  0.237230  0.242090  0.247460  0.251200  0.253060  0.252740  0.253030  0.255710  0.260960  0.266050  0.268140  0.271180  0.274080  0.273340  0.270440  0.268870  0.270680  0.273060  0.275990  0.278680  0.278700  0.278940  0.281100  0.284230  0.283750  0.279790  0.278970  0.281210  0.283880  0.286350  0.290850  0.296370  0.298570  0.301560  0.306990  0.311520  0.313450  0.314610  0.318810  0.321640  0.321180  0.321800  0.325690  0.331750  0.336510  0.342030  0.347340  0.348390  0.347760  0.347490  0.347190  0.344320  0.341460  0.343960  0.348930  0.353370  0.355730  0.357900  0.360980  0.361160  0.360310  0.360200  0.361130  0.361000  0.359190  0.361740  0.367070  0.371010  0.373470  0.375890  0.378210  0.377730  0.378530  0.381720  0.384150  0.387050  0.389510  0.391450  0.394030  0.399250  0.404160  0.402240  0.397990  0.395600  0.393890  0.391250  0.387620  0.386170  0.383720  0.379650  0.378080  0.379920  0.382520  0.380180  0.374920  0.370210  0.365010  0.360070  0.356360  0.357060  0.360250  0.360430  0.356030  0.347770  0.340950  0.336150  0.331290  0.326390  0.320640  0.316010  0.310940  0.305180  0.300730  0.297290  0.295520  0.293040  0.289190  0.283990  0.277600  0.274060  0.273630  0.274920  0.274910  0.271220  0.265090  0.256980  0.250080  0.245360  0.240840  0.235510  0.229520  0.225650  0.220810  0.212510  0.205710  0.202690  0.199790  0.192010  0.182630  0.175890  0.170240  0.165600  0.160670  0.154200  0.146420  0.138370  0.131000  0.123000  0.116180  0.111520  0.106900  0.101510  0.095671  0.092032  0.089802  0.086006  0.080388  0.074327  0.070728  0.068423  0.064752  0.059226  0.053132  0.049350  0.046884  0.044168  0.041813  0.039765  0.036292  0.028888  0.019692  0.012402  0.008292  0.006893  0.004888  0.000463 -0.004787 -0.008328 -0.010303 -0.012940 -0.015481 -0.017934 -0.020955 -0.023105 -0.024895 -0.029217 -0.037140 -0.044606 -0.048768 -0.051484 -0.053946 -0.056461 -0.059269 -0.061732 -0.062539 -0.062004 -0.063787 -0.069094 -0.074256 -0.075731 -0.074933 -0.076605 -0.081384 -0.086529 -0.091142 -0.096552 -0.102420 -0.106090 -0.108410 -0.111640 -0.113770 -0.112210 -0.108660 -0.106120 -0.103860 -0.101130 -0.100100 -0.101080 -0.101430 -0.100260 -0.100450 -0.103090 -0.105340 -0.107250 -0.111770 -0.117210 -0.118830 -0.118100 -0.120090 -0.123410 -0.123330 -0.120280 -0.118120 -0.118020 -0.118070 -0.117890 -0.119050 -0.122060 -0.125440 -0.126750 -0.124530 -0.120080 -0.117980 -0.120170 -0.122620 -0.122670 -0.122420 -0.122530 -0.121790 -0.122620 -0.127460 -0.132870 -0.135170 -0.135490 -0.135360 -0.135050 -0.135840 -0.138500 -0.141490 -0.143840 -0.146310 -0.148980 -0.151610 -0.153510 -0.152920 -0.150110 -0.148150 -0.148230 -0.148190 -0.148110 -0.150110 -0.152840 -0.153290 -0.152210 -0.152350 -0.153270 -0.152550 -0.150070 -0.147470 -0.145070 -0.141170 -0.135520 -0.131360 -0.131520 -0.134380 -0.136030 -0.135460 -0.134910 -0.135530 -0.135750 -0.134880 -0.135130 -0.136380 -0.134930 -0.131610 -0.131660 -0.134710 -0.137010 -0.139960 -0.143660 -0.143170 -0.140050 -0.140120 -0.139660 -0.134180 -0.130740 -0.133870 -0.136490 -0.135420 -0.136460 -0.140760 -0.143520 -0.144660 -0.147730 -0.151610 -0.152550 -0.151970 -0.153930 -0.156680 -0.156830 -0.157100 -0.159860 -0.161590 -0.161170 -0.162540 -0.165680 -0.168010 -0.171330 -0.176740 -0.180960 -0.182780 -0.184870 -0.188010 -0.190560 -0.192810 -0.195530 -0.196780 -0.195360 -0.194670 -0.197660 -0.200130 -0.198000 -0.195690 -0.197830 -0.201680 -0.203930 -0.206230 -0.208860 -0.209330 -0.208330 -0.208420 -0.209260 -0.208720 -0.206220 -0.203790 -0.203690 -0.206070 -0.208610 -0.209300 -0.208360 -0.206020 -0.201800 -0.196450 -0.192460 -0.191440 -0.191710 -0.190640 -0.187800 -0.184770 -0.182610 -0.180250 -0.177160 -0.174590 -0.173790 -0.174210 -0.174320 -0.174130 -0.174240 -0.173410 
Shapelet   3  -0.168680 -0.182140 -0.186620 -0.195590 -0.186620 -0.173170 -0.173170 -0.182140 -0.191100 -0.195590 -0.182140 -0.164200 -0.150750 -0.141780 -0.132810 -0.137300 -0.141780 -0.150750 -0.173170 -0.182140 -0.173170 -0.182140 -0.200070 -0.195590 -0.204560 -0.204560 -0.204560 -0.204560 -0.213530 -0.209040 -0.200070 -0.186620 -0.177650 -0.168680 -0.159720 -0.173170 -0.218010 -0.280790 -0.339080 -0.374950 -0.424280 -0.496020 -0.558800 -0.608130 -0.657450 -0.706780  0.068975  0.068975  0.077943  0.082427  0.091395  0.109330  0.131750  0.131750  0.113820  0.100360  0.095879  0.091395  0.100360  0.113820  0.122780  0.122780  0.109330  0.109330  0.113820  0.113820  0.109330  0.109330  0.113820  0.113820  0.118300  0.127270  0.140720  0.140720  0.127270  0.127270  0.136240  0.140720  0.136240  0.127270  0.122780  0.113820  0.113820  0.122780  0.127270  0.122780  0.131750  0.140720  0.140720  0.145200  0.145200  0.149690  0.158660  0.154170  0.145200  0.136240  0.149690  0.149690  0.145200  0.149690  0.145200  0.127270  0.113820  0.109330  0.113820  0.122780  0.127270  0.118300  0.118300  0.122780  0.122780  0.122780  0.127270  0.127270  0.109330  0.104850  0.118300  0.131750  0.136240  0.122780  0.104850  0.091395  0.077943  0.082427  0.095879  0.100360  0.104850  0.109330  0.095879  0.073459  0.082427  0.091395  0.095879  0.077943  0.068975  0.068975  0.073459  0.068975  0.064490  0.073459  0.086911  0.077943  0.055522  0.051038  0.055522  0.060006  0.046554  0.028617  0.024133  0.028617  0.042070  0.055522  0.055522  0.051038  0.060006  0.051038  0.037586  0.028617  0.015165  0.006197  0.001713  0.006197 -0.002772 -0.002772  0.006197  0.010681  0.010681  0.001713 -0.007256 -0.007256 -0.011740 -0.011740 -0.007256 -0.011740 -0.020708 -0.020708 -0.025192 -0.016224 -0.016224 -0.025192 -0.038644 -0.043129 -0.034160 -0.025192 -0.025192 -0.038644 -0.056581 -0.056581 -0.034160 -0.020708 -0.025192 -0.029676 -0.020708 -0.025192 -0.034160 -0.038644 -0.034160 -0.038644 -0.047613 -0.056581 -0.061065 -0.056581 -0.056581 -0.056581 -0.056581 -0.056581 -0.056581 -0.061065 -0.061065 -0.052097 -0.043129 -0.038644 -0.043129 -0.043129 -0.043129 -0.065549 -0.079002 -0.083486 -0.079002 -0.083486 -0.074517 -0.070033 -0.074517 -0.074517 -0.070033 -0.074517 -0.070033 -0.061065 -0.056581 -0.065549 -0.065549 -0.061065 -0.061065 -0.065549 -0.065549 -0.061065 -0.061065 -0.061065 -0.074517 -0.079002 -0.074517 -0.083486 -0.096938 -0.096938 -0.083486 -0.074517 -0.070033 -0.079002 -0.079002 -0.070033 -0.061065 -0.056581 -0.052097 -0.056581 -0.070033 -0.079002 -0.079002 -0.070033 -0.070033 -0.079002 -0.083486 -0.079002 -0.079002 -0.083486 -0.087970 -0.074517 -0.052097 -0.043129 -0.047613 -0.052097 -0.061065 -0.061065 -0.061065 -0.065549 -0.074517 -0.079002 -0.070033 -0.061065 -0.052097 -0.061065 -0.074517 -0.083486 -0.096938 -0.096938 -0.083486 -0.074517 -0.070033 -0.074517 -0.079002 -0.079002 -0.079002 -0.074517 -0.074517 -0.074517 -0.079002 -0.083486 -0.070033 -0.065549 -0.056581 -0.056581 -0.061065 -0.074517 -0.083486 -0.092454 -0.092454 -0.083486 -0.083486 -0.083486 -0.079002 -0.074517 -0.087970 -0.083486 -0.065549 -0.056581 -0.056581 -0.056581 -0.052097 -0.047613 -0.047613 -0.052097 -0.065549 -0.074517 -0.074517 -0.070033 -0.074517 -0.070033 -0.083486 -0.083486 -0.079002 -0.083486 -0.083486 -0.074517 -0.061065 -0.056581 -0.056581 -0.056581 -0.052097 -0.047613 -0.043129 -0.047613 -0.056581 -0.074517 -0.079002 -0.070033 -0.070033 -0.070033 -0.074517 -0.079002 -0.070033 -0.061065 -0.056581 -0.043129 -0.038644 -0.056581 -0.065549 -0.065549 -0.056581 -0.056581 -0.056581 -0.056581 -0.061065 -0.065549 -0.065549 -0.065549 -0.061065 -0.061065 -0.070033 -0.070033 -0.061065 -0.061065 -0.061065 -0.061065 -0.056581 -0.043129 -0.038644 -0.052097 -0.061065 -0.052097 -0.047613 -0.052097 -0.065549 -0.079002 -0.083486 -0.087970 -0.083486 -0.079002 -0.070033 -0.070033 -0.079002 -0.087970 -0.074517 -0.047613 -0.034160 -0.034160 -0.034160 -0.038644 -0.052097 -0.052097 -0.056581 -0.056581 -0.052097 -0.052097 -0.056581 -0.056581 -0.038644 -0.034160 -0.038644 -0.047613 -0.052097 -0.056581 -0.056581 -0.052097 -0.043129 -0.056581 -0.065549 -0.070033 -0.056581 -0.052097 -0.056581 -0.061065 -0.061065 -0.061065 -0.056581 -0.047613 -0.056581 -0.052097 -0.052097 -0.047613 -0.052097 -0.056581 -0.052097 -0.047613 -0.038644 -0.029676 -0.025192 -0.034160 -0.038644 -0.043129 -0.043129 -0.038644 -0.043129 -0.061065 -0.065549 -0.061065 -0.052097 -0.047613 -0.047613 -0.043129 -0.034160 -0.038644 -0.047613 -0.034160 -0.020708 -0.016224 -0.016224 -0.007256  0.001713  0.006197  0.019649  0.024133  0.037586  0.042070  0.051038  0.073459  0.095879  0.104850  0.100360  0.104850  0.113820  0.118300  0.127270  0.131750  0.131750  0.136240  0.140720  0.158660  0.181080  0.181080  0.176590  0.181080  0.185560  0.190050  0.190050  0.190050  0.194530  0.194530  0.194530  0.194530  0.207980  0.234890  0.248340  0.257310  0.252820  0.239370  0.230400  0.234890  0.252820  0.266280  0.266280  0.270760  0.270760  0.252820  0.234890  0.216950  0.203500  0.190050  0.176590  0.158660  0.140720  0.127270  0.127270  0.127270  0.104850  0.073459  0.046554  0.006197 -0.029676 -0.061065 -0.087970 -0.101420 -0.123840 -0.146260 -0.173170 -0.191100 -0.213530 -0.222490 -0.222490 -0.209040 -0.195590 -0.186620 -0.177650 -0.191100 -0.209040 -0.231460 -0.235950 -0.235950 -0.240430 -0.244910 -0.231460 -0.222490 -0.213530 -0.218010 -0.218010 -0.213530 -0.204560 -0.191100 -0.168680 -0.141780 -0.110390 -0.092454 -0.083486 -0.087970 -0.083486 -0.079002 -0.070033 -0.056581 -0.047613 -0.034160 -0.029676 -0.025192 -0.038644 -0.070033 -0.083486 -0.092454 -0.110390 -0.132810 -0.146260 -0.150750 -0.155230 -0.155230 -0.141780 -0.123840 -0.105910 -0.114870 -0.141780 -0.155230 -0.150750 -0.150750 -0.155230 -0.168680 -0.164200 -0.150750 -0.146260 -0.137300 -0.132810 -0.128330 -0.123840 -0.123840 -0.123840 -0.128330 -0.110390 -0.101420 -0.092454 -0.083486 -0.074517 -0.079002 -0.092454 -0.096938 -0.092454 -0.083486 -0.087970 -0.096938 -0.105910 -0.105910 -0.083486 -0.061065 -0.056581 -0.061065 -0.074517 -0.083486 -0.070033 -0.070033 -0.070033 -0.056581 -0.052097 -0.065549 -0.056581 -0.056581 -0.056581 -0.052097 -0.043129 -0.047613 -0.056581 -0.061065 -0.070033 -0.092454 -0.132810 -0.168680 -0.231460 -0.307690 -0.361500 -0.401860 -0.482570 -0.585710 -0.679870 -0.765070 -0.827850 -0.868210 -0.881660 -0.854750 -0.760590 -0.617100 -0.401860 -0.164200 -0.038644 -0.061065 -0.271820 -0.679870 -1.182100 -1.617100 -2.020600 -2.585600 -3.182000 -3.751500 -4.312000 -4.989100 -5.715500 -6.316400 -6.755900 -7.024900 -7.190800 -7.329800 -7.437400 -7.455400 -7.388100 -7.334300 -7.338800 -7.361200 -7.361200 -7.267100 -7.137000 -6.926300 -6.675100 -6.459900 -6.222200 -5.980100 -5.755900 -5.576500 -5.455500 -5.343400 -5.141600 -4.868000 -4.603500 
Shapelet   5  -4.829900 -5.132100 -5.298000 -5.345800 -5.270000 -5.033200 -4.681600 -4.347700 -4.097900 -3.863600 -3.600200 -3.347900 -3.136000 -2.966500 -2.872400 -2.787700 -2.561200 -2.158700 -1.680400 -1.229900 -0.821150 -0.475200 -0.194690  0.059111  0.251590  0.289300  0.095377 -0.271190 -0.704920 -1.164100 -1.579500 -1.864500 -1.994700 -2.033400 -2.017200 -1.952000 -1.931000 -2.003300 -2.093400 -2.106200 -2.072500 -2.080500 -2.105600 -2.084800 -2.046700 -2.068400 -2.146000 -2.229600 -2.323300 -2.412100 -2.435200 -2.390200 -2.319900 -2.250100 -2.180900 -2.120000 -2.074100 -2.034100 -2.007600 -1.977000 -1.905000 -1.789400 -1.652400 -1.509100 -1.339400 -1.138900 -0.931430 -0.714140 -0.480230 -0.258480 -0.116680 -0.064666 -0.026875  0.037367  0.088040  0.075204  0.035020  0.025345  0.028449  0.026148  0.035593  0.055901  0.051748  0.028534  0.015668 -0.010838 -0.050237 -0.057305 -0.032170 -0.020137 -0.034634 -0.065628 -0.119410 -0.171350 -0.182070 -0.176700 -0.206630 -0.253270 -0.245860 -0.183640 -0.146160 -0.161920 -0.179730 -0.176070 -0.184220 -0.205740 -0.209920 -0.202130 -0.186500 -0.151470 -0.118860 -0.105250 -0.077591 -0.021930  0.017609  0.027653  0.033425  0.025032  0.002527  0.008109  0.049431  0.081685  0.086751  0.086845  0.086884  0.086334  0.089443  0.086334  0.081579  0.093974  0.113690  0.114390  0.115560  0.147830  0.181840  0.182100  0.162210  0.146270  0.132170  0.111210  0.092697  0.083893  0.085825  0.092274  0.083868  0.050615  0.014802  0.020267  0.065237  0.086083  0.043749 -0.028554 -0.078621 -0.109030 -0.147760 -0.187610 -0.210500 -0.225920 -0.250640 -0.264000 -0.247870 -0.231860 -0.231960 -0.237930 -0.259300 -0.299930 -0.323610 -0.319560 -0.330820 -0.350690 -0.338240 -0.321720 -0.337390 -0.355970 -0.352120 -0.356420 -0.381980 -0.400980 -0.414400 -0.432740 -0.445130 -0.439400 -0.421360 -0.404290 -0.385610 -0.379040 -0.406250 -0.440110 -0.432920 -0.405420 -0.433970 -0.514440 -0.570680 -0.585730 -0.587630 -0.575290 -0.536340 -0.500450 -0.498130 -0.503990 -0.486130 -0.448860 -0.420220 -0.409830 -0.405970 -0.412950 -0.430920 -0.450750 -0.467580 -0.473710 -0.463550 -0.444580 -0.431660 -0.413190 -0.384230 -0.383730 -0.420160 -0.448040 -0.441820 -0.431490 -0.440280 -0.443590 -0.434310 -0.436050 -0.441350 -0.406820 -0.331620 -0.279240 -0.266790 -0.246880 -0.206230 -0.179200 -0.174480 -0.157440 -0.133550 -0.144150 -0.175440 -0.168950 -0.113700 -0.067923 -0.058654 -0.065964 -0.094533 -0.147300 -0.192930 -0.205410 -0.202200 -0.205930 -0.218420 -0.247240 -0.283620 -0.307230 -0.322570 -0.351160 -0.393160 -0.412190 -0.395900 -0.380570 -0.401930 -0.451750 -0.488740 -0.504160 -0.523330 -0.548420 -0.554370 -0.535830 -0.518390 -0.501690 -0.477240 -0.468280 -0.472230 -0.458780 -0.439080 -0.450520 -0.468240 -0.439600 -0.396790 -0.398870 -0.431240 -0.439370 -0.419810 -0.405240 -0.373880 -0.312960 -0.290860 -0.340890 -0.384120 -0.364170 -0.347060 -0.374840 -0.400110 -0.412040 -0.444620 -0.479230 -0.453620 -0.382950 -0.351210 -0.369520 -0.380690 -0.376740 -0.401360 -0.439470 -0.444160 -0.437260 -0.439030 -0.434200 -0.438040 -0.462300 -0.462890 -0.422730 -0.406310 -0.434730 -0.458670 -0.470100 -0.486630 -0.505240 -0.522300 -0.544300 -0.555430 -0.537580 -0.521430 -0.524990 -0.520740 -0.496190 -0.482780 -0.510210 -0.547560 -0.563360 -0.584320 -0.644050 -0.721650 -0.758630 -0.754660 -0.758620 -0.780460 -0.787780 -0.767960 -0.755240 -0.759320 -0.759850 -0.760360 -0.761360 -0.756190 -0.756660 -0.775970 -0.789570 -0.784020 -0.797020 -0.817920 -0.804890 -0.789690 -0.815630 -0.860400 -0.892750 -0.931380 -0.964150 -0.953240 -0.931130 -0.931850 -0.932660 -0.910300 -0.874480 -0.842440 -0.833690 -0.868460 -0.904290 -0.894410 -0.875920 -0.876480 -0.872790 -0.871610 -0.898420 -0.905170 -0.850890 -0.809240 -0.815150 -0.812460 -0.790110 -0.773160 -0.751560 -0.728570 -0.744560 -0.761440 -0.724980 -0.701550 -0.737260 -0.775470 -0.787340 -0.804370 -0.818740 -0.811790 -0.834820 -0.894300 -0.922160 -0.904080 -0.882110 -0.871800 -0.852710 -0.844320 -0.877830 -0.921490 -0.935030 -0.930550 -0.952990 -0.992380 -1.000800 -0.991940 -1.006700 -1.041300 -1.053100 -1.042800 -1.056500 -1.079400 -1.072600 -1.053300 -1.053700 -1.050200 -1.025400 -1.028700 -1.051400 -1.030800 -0.993080 -1.009600 -1.075800 -1.127500 -1.159100 -1.197600 -1.235100 -1.260900 -1.260900 -1.247600 -1.254500 -1.286900 -1.320100 -1.335000 -1.357100 -1.396000 -1.432000 -1.465900 -1.499300 -1.534400 -1.569500 -1.598600 -1.606600 -1.586700 -1.574200 -1.576900 -1.570200 -1.548900 -1.525100 -1.516900 -1.515600 -1.530900 -1.575200 -1.609500 -1.599700 -1.574100 -1.593800 -1.633400 -1.636300 -1.638400 -1.671600 -1.710700 -1.743900 -1.801600 -1.877400 -1.918200 -1.930000 -1.930000 -1.914400 -1.899100 -1.905500 -1.941400 -1.977500 -1.992700 -1.987500 -1.976900 -1.992300 -2.012600 -2.008000 -1.988400 -1.980300 -1.986400 -1.970000 -1.943100 -1.951400 -1.998600 -2.051300 -2.083600 -2.119800 -2.156300 -2.164700 -2.162200 -2.174900 -2.194900 -2.175300 -2.124800 -2.104100 -2.119100 -2.132100 -2.111500 -2.097200 -2.130300 -2.165300 -2.152800 -2.111500 -2.101100 -2.105300 -2.074400 -2.039800 -2.023300 -1.999700 -1.962900 -1.946000 -1.959300 -1.974300 -1.992700 -1.992900 -1.955900 -1.928200 -1.930400 -1.914500 -1.839200 -1.771300 -1.781700 -1.814400 -1.801700 -1.775500 -1.809000 -1.867000 -1.867000 -1.832300 -1.799500 -1.754400 -1.701300 -1.674300 -1.661700 -1.612200 -1.550700 -1.521800 -1.509600 -1.488200 -1.463300 -1.461700 -1.464300 -1.440600 -1.402800 -1.366300 -1.330200 -1.277200 -1.224300 -1.199300 -1.185500 -1.160100 -1.123100 -1.096500 -1.082600 -1.083600 -1.117300 -1.131300 -1.072600 -1.001300 -0.982570 -0.958680 -0.881750 -0.837050 -0.846950 -0.828130 -0.788510 -0.794920 -0.826790 -0.824580 -0.805920 -0.790340 -0.745190 -0.686100 -0.665290 -0.688450 -0.702850 -0.673300 -0.637230 -0.634030 -0.651580 -0.647470 -0.612800 -0.581230 -0.564000 -0.543800 -0.506730 -0.471670 -0.469140 -0.489220 -0.493830 -0.455290 -0.406970 -0.410170 -0.451610 -0.467000 -0.445420 -0.435360 -0.439350 -0.423240 -0.407360 -0.409930 -0.399140 -0.357720 -0.314110 -0.289170 -0.271390 -0.255630 -0.238520 -0.217360 -0.204220 -0.191430 -0.159460 -0.122580 -0.119860 -0.148100 -0.158690 -0.135180 -0.098822 -0.072283 -0.059700 -0.044603 -0.024471 -0.021662 -0.046202 -0.060046 -0.040412 -0.030854 -0.050875 -0.058767 -0.035082 -0.009991  0.000136  0.003136 -0.007412 -0.026769 -0.033866 -0.029597 -0.017091  0.013479  0.050443  0.063262  0.057404  0.066781  0.099548  0.151260  0.214800  0.260500  0.258840  0.223820  0.202580  0.212000  0.230560  0.247010  0.265240  0.271090  0.248820  0.231730  0.249300  0.261610  0.242660  0.233430  0.255050  0.277110  0.291730  0.301600  0.279020  0.239400  0.237080  0.261380  0.266630  0.261780  0.265100  0.247940  0.207260  0.181530  0.172570  0.156500  0.133690  0.117680  0.112260  0.117100  0.121570  0.107620  0.088974  0.086967  0.086117  0.070263  0.051234  0.035490  0.006226 -0.030360 -0.040870 -0.022500 -0.003566  0.000524 -0.000794 -0.008831 -0.039341 -0.076876 -0.097489 -0.114500 -0.140660 -0.144170 -0.107930 -0.078017 -0.084991 -0.096921 -0.086443 -0.066286 -0.056799 -0.058143 -0.061939 -0.058924 -0.032327  0.018877  0.071616  0.115910  0.172280  0.236860  0.265170  0.260970  0.272130 


; cmd = /home/grad00/soren885/capstone/ShapeletResearch/Execs/FastShapelet /home/grad00/soren885/capstone/Shapelet_Datasets/UCR_Master/CinC_ECG_torso_TRAIN 4 40 820 1 2 10 euclidean 0 0 10 ./replications/CinC_ECG_torso/CinC_ECG_torso_euclidean_unnormed_NOCID_REP25_tree.txt ./replications/CinC_ECG_torso/CinC_ECG_torso_euclidean_unnormed_NOCID_REP25_time.txt
; time =>  346.204  18.228  92.320   6.211 222.397 
; command = /home/grad00/soren885/capstone/ShapeletResearch/Execs/Classify /home/grad00/soren885/capstone/Shapelet_Datasets/UCR_Master/CinC_ECG_torso_TEST 4 1380 euclidean 0 0 ./replications/CinC_ECG_torso/CinC_ECG_torso_euclidean_unnormed_NOCID_REP25_tree.txt ./replications/CinC_ECG_torso/CinC_ECG_torso_euclidean_unnormed_NOCID_REP25_acc.txt
; accuracy= 66.884   Correct:923 , Wrong: 457


;   == Confusion Matrix ==
;   real |   3    2    4    1 
;   -----+------------------------
;   p  3 | 189   61   28   97 
;   p  2 |  80  272    8   28 
;   p  4 |   0    0  273   36 
;   p  1 |  74    9   36  189 

