;Shapelet Tree 

;random seed:1503525699, rand()=101902239, rand()=286754561
;command = /home/grad00/soren885/capstone/ShapeletResearch/Execs/FastShapelet /home/grad00/soren885/capstone/Shapelet_Datasets/UCR_Master/CinC_ECG_torso_TRAIN 4 40 820 1 2 10 correlation 0 0 10 ./replications/CinC_ECG_torso/CinC_ECG_torso_correlation_unnormed_NOCID_REP10_tree.txt ./replications/CinC_ECG_torso/CinC_ECG_torso_correlation_unnormed_NOCID_REP10_time.txt 

;Local Class:   0  1  2  3 
;Real  Class:   1  3  4  2 

;Node ID class   obj  pos  len  dist_th 
TreeSize: 8 
NonL  1    --     25   43  733   0.5868 ==>   0  12   0  13  /   5   0  10   0 
NonL  2    --      0   22  407   0.0729 ==>   0  11   0   0  /   0   1   0  13 
NonL  3    --      5   65  571   0.1679 ==>   5   0   0   0  /   0   0  10   0 
Leaf  4     3    
Leaf  5     2    
Leaf  6     1    
Leaf  7     4    

;Shapelet id   <data>
Shapelet   1   0.635030  0.640130  0.633920  0.660210  0.674710  0.614440  0.546630  0.545020  0.554080  0.529150  0.531320  0.590270  0.639930  0.631450  0.592730  0.565370  0.553710  0.548870  0.561010  0.597580  0.635140  0.642100  0.613160  0.573030  0.553580  0.557950  0.555340  0.543550  0.560810  0.600830  0.614830  0.611200  0.628110  0.641450  0.622760  0.611940  0.634930  0.652900  0.639940  0.608110  0.566930  0.530930  0.520860  0.524780  0.522090  0.530270  0.566490  0.605200  0.613290  0.586040  0.544430  0.522510  0.534830  0.552940  0.553110  0.555740  0.574470  0.586770  0.583950  0.583480  0.582510  0.566280  0.548380  0.550770  0.560260  0.553550  0.545560  0.562350  0.582820  0.573550  0.554360  0.553560  0.551640  0.533490  0.511640  0.472360  0.409760  0.376890  0.395830  0.413380  0.408320  0.416510  0.440150  0.456410  0.478530  0.516110  0.543690  0.554690  0.571350  0.586290  0.566910  0.526640  0.524720  0.576070  0.622090  0.620370  0.603320  0.611130  0.623670  0.604970  0.567600  0.542600  0.527270  0.507530  0.494600  0.496080  0.490620  0.470270  0.460150  0.466980  0.457630  0.420650  0.402770  0.440760  0.496920  0.511070  0.484990  0.465910  0.475920  0.495160  0.490120  0.456020  0.433990  0.450650  0.466780  0.449020  0.438600  0.473300  0.511100  0.501640  0.463020  0.434320  0.417300  0.401620  0.402870  0.433610  0.467950  0.474200  0.461650  0.461860  0.479960  0.495540  0.498530  0.493200  0.477080  0.444650  0.409820  0.397770  0.413260  0.433880  0.433350  0.410990  0.404670  0.447460  0.508560  0.525130  0.500090  0.496010  0.528260  0.541550  0.506230  0.469310  0.474400  0.496030  0.499130  0.494990  0.496610  0.488090  0.467180  0.448640  0.433520  0.430720  0.451530  0.466750  0.450270  0.437080  0.455130  0.473040  0.468590  0.454010  0.434490  0.425760  0.454720  0.492770  0.480680  0.434600  0.422150  0.448750  0.466360  0.462680  0.466300  0.486090  0.495780  0.477710  0.449760  0.437340  0.438290  0.436280  0.434860  0.441120  0.439130  0.419500  0.407910  0.423600  0.448550  0.464280  0.470360  0.465530  0.460910  0.472590  0.473930  0.431100  0.377590  0.364730  0.390610  0.442460  0.512330  0.553610  0.539760  0.524130  0.543780  0.560900  0.554900  0.551690  0.554080  0.552010  0.560930  0.580610  0.587290  0.582750  0.582860  0.582450  0.581590  0.594490  0.613330  0.617890  0.607160  0.589040  0.574630  0.583090  0.607730  0.607980  0.571410  0.528980  0.497630  0.473280  0.467500  0.485920  0.502040  0.497170  0.489350  0.498180  0.516940  0.528780  0.526820  0.513300  0.493510  0.474170  0.463260  0.464190  0.475290  0.496330  0.528210  0.567930  0.604340  0.615850  0.585250  0.527720  0.490140  0.505850  0.552940  0.582080  0.583940  0.583180  0.571600  0.529880  0.496490  0.509600  0.524320  0.492900  0.449990  0.437100  0.437560  0.437430  0.452110  0.472680  0.471210  0.457500  0.466220  0.491740  0.490360  0.452390  0.423280  0.435090  0.461300  0.464580  0.447210  0.423390  0.385640  0.338460  0.321100  0.353050  0.400480  0.432370  0.452310  0.467790  0.484040  0.502540  0.501770  0.475130  0.466720  0.490450  0.489500  0.449660  0.427250  0.436650  0.441710  0.434940  0.420200  0.385400  0.351250  0.355530  0.384330  0.402390  0.415450  0.434730  0.434610  0.403410  0.389870  0.432870  0.488010  0.501180  0.495570  0.500040  0.487650  0.465540  0.489670  0.553540  0.600030  0.613970  0.599170  0.548770  0.497860  0.489300  0.495500  0.478290  0.454570  0.439440  0.421160  0.406710  0.407710  0.403970  0.383430  0.369150  0.381020  0.414460  0.450910  0.467530  0.454710  0.436940  0.446190  0.477670  0.497230  0.481200  0.439130  0.398100  0.375060  0.374950  0.384240  0.380470  0.362340  0.347350  0.333150  0.305780  0.290600  0.300610  0.286070  0.219530  0.142320  0.076040 -0.007233 -0.092758 -0.125980 -0.108070 -0.089167 -0.095089 -0.117620 -0.150510 -0.185200 -0.188770 -0.144470 -0.091622 -0.067835 -0.056103 -0.038289 -0.019474  0.019480  0.083608  0.117640  0.111340  0.132830  0.191160  0.241000  0.298210  0.387630  0.463050  0.509460  0.575240  0.642830  0.654480  0.639280  0.673340  0.758620  0.842990  0.902370  0.944120  0.979590  1.003400  0.995380  0.952920  0.891000  0.808150  0.704790  0.621580  0.590880  0.581380  0.561190  0.554390  0.575470  0.606670  0.644030  0.682950  0.707010  0.738650  0.815580  0.903870  0.946910  0.972100  1.025100  1.083900  1.108500  1.108000  1.110000  1.112500  1.097600  1.057900  1.005000  0.955410  0.917320  0.897420  0.900430  0.926830  0.966340  0.989870  0.991600  1.009500  1.050400  1.049600  0.991570  0.957770  0.964260  0.944420  0.905520  0.907760  0.944080  0.991470  1.072400  1.160300  1.193500  1.198800  1.232600  1.270400  1.262100  1.206600  1.127500  1.052500  1.000700  0.949580  0.883760  0.845210  0.847840  0.836810  0.796240  0.790710  0.845410  0.896840  0.900960  0.881860  0.862800  0.821770  0.748610  0.690520  0.685780  0.724580  0.779930  0.818330  0.813650  0.801880  0.843810  0.900490  0.881950  0.810740  0.778800  0.797950  0.815970  0.810710  0.786870  0.742070  0.674820  0.586730  0.501480  0.466270  0.492880  0.533370  0.549470  0.565070  0.606600  0.651530  0.673260  0.686740  0.718290  0.754150  0.764310  0.757890  0.768830  0.804890  0.839730  0.859520  0.876400  0.895520  0.907400  0.907170  0.891740  0.846800  0.774860  0.715180  0.697460  0.708560  0.727440  0.756120  0.797480  0.834410  0.856140  0.872800  0.884980  0.870100  0.819270  0.762750  0.732030  0.726580  0.729230  0.719080  0.681380  0.626630  0.587540  0.583440  0.601660  0.613860  0.596630  0.554980  0.525290  0.532580  0.561720  0.581440  0.579100  0.557520  0.522590  0.490730  0.485450  0.511990  0.548350  0.572450  0.584220  0.587190  0.577140  0.558630  0.541580  0.523650  0.503690  0.493870  0.495750  0.489520  0.466690  0.444210  0.436200  0.436310  0.441830  0.463910  0.491490  0.493010  0.473520  0.460700  0.442190  0.402110  0.377870  0.395100  0.413770  0.409080  0.414350  0.439060  0.434890  0.385800  0.350230  0.361820  0.378900  0.386770  0.424770  0.467290  0.435670  0.352960  0.312540  0.327070  0.359970  0.410030  0.462480  0.469750  0.426780  0.373100  0.327890  0.294580  0.292410  0.325250  0.352200  0.340160  0.320510  0.331480  0.350050  0.349150  0.353720  0.373860  0.380540  0.378610  0.405680  0.447460  0.449250  0.414890  0.406090  0.448950  0.508270  0.558070  0.616580  0.689020  0.750880  0.793390  0.827580  0.858670  0.873530  0.875000  0.874900  0.860740  0.834760  0.833700  0.893120  0.994450  1.127700  1.325900  1.539900  1.697600  1.831700  2.000700  2.172400  2.320700  2.505900  2.720700  2.901600  3.070900  3.263200  3.443800  3.593400  3.744100  3.865300  3.886700  3.820300  3.733200  3.627100  3.464900  3.280300  3.142400  3.065400  2.961400  2.777300  2.546400  2.282500  1.946600  1.504000  1.031300  0.577500  0.083059 -0.510050 -1.194700 -1.929700 -2.683500 -3.374400 -3.943800 -4.422900 -4.829900 -5.132100 -5.298000 -5.345800 -5.270000 -5.033200 -4.681600 -4.347700 -4.097900 -3.863600 -3.600200 -3.347900 -3.136000 -2.966500 -2.872400 -2.787700 -2.561200 -2.158700 -1.680400 -1.229900 -0.821150 -0.475200 -0.194690  0.059111  0.251590  0.289300  0.095377 -0.271190 -0.704920 -1.164100 -1.579500 -1.864500 -1.994700 -2.033400 -2.017200 -1.952000 -1.931000 -2.003300 
Shapelet   2  -0.050205 -0.003773  0.007971  0.009238  0.000661 -0.026274 -0.048249 -0.074193 -0.093300 -0.075104 -0.044098 -0.025180 -0.002933  0.015918  0.007329 -0.000467  0.025361  0.041458  0.017637  0.009690  0.043820  0.072353  0.075528  0.075623  0.076767  0.074225  0.075716  0.076644  0.078525  0.112890  0.164850  0.180030  0.176970  0.182520  0.154710  0.106350  0.101420  0.116930  0.107890  0.103920  0.116830  0.107250  0.098285  0.139760  0.177830  0.156410  0.133290  0.144560  0.147080  0.138440  0.144050  0.146450  0.137400  0.145400  0.170420  0.179400  0.177190  0.197540  0.231070  0.244540  0.243310  0.247750  0.241320  0.198520  0.138530  0.107950  0.128310  0.167540  0.175710  0.171530  0.194230  0.211710  0.228310  0.285560  0.309160  0.259340  0.234400  0.245350  0.242560  0.259060  0.278330  0.254070  0.234860  0.247510  0.268120  0.309010  0.349840  0.329510  0.269460  0.242640  0.245030  0.238450  0.250240  0.298540  0.325650  0.305390  0.281920  0.266670  0.236510  0.211200  0.221850  0.250140  0.272060  0.295220  0.314470  0.313620  0.309100  0.311500  0.289960  0.237620  0.208440  0.233440  0.269960  0.277270  0.275480  0.293510  0.315750  0.314750  0.304290  0.317900  0.343040  0.335910  0.303840  0.304530  0.339500  0.338680  0.289100  0.251540  0.243410  0.243700  0.245090  0.244610  0.267610  0.322710  0.344930  0.317070  0.304870  0.313580  0.311500  0.323870  0.352810  0.349750  0.332200  0.357700  0.381810  0.342330  0.307240  0.336980  0.374380  0.375930  0.351200  0.318320  0.315650  0.341890  0.349940  0.343990  0.345740  0.331250  0.303350  0.307470  0.336870  0.344650  0.343480  0.365580  0.381410  0.378530  0.394870  0.419320  0.414820  0.405170  0.421380  0.444650  0.450180  0.444320  0.445770  0.449710  0.443200  0.444760  0.467460  0.483800  0.480830  0.478730  0.480570  0.480160  0.482020  0.474630  0.448980  0.435130  0.462510  0.510630  0.525960  0.503560  0.510720  0.562330  0.580940  0.550070  0.537270  0.558150  0.580060  0.603090  0.617030  0.584710  0.543040  0.566270  0.613730  0.618390  0.616160  0.616020  0.588470  0.590540  0.646480  0.682570  0.675370  0.649950  0.635790  0.671390  0.715900  0.702570  0.667300  0.649350  0.628090  0.603550  0.581860  0.570670  0.602600  0.648720  0.637250  0.598450  0.615030  0.668530  0.679570  0.648950  0.655340  0.715170  0.750220  0.729290  0.709450  0.716660  0.734900  0.772210  0.818390  0.827860  0.802170  0.783610  0.766870  0.723790  0.681820  0.675950  0.692180  0.717630  0.745200  0.744100  0.714960  0.689750  0.676510  0.683710  0.708630  0.717820  0.716770  0.736500  0.765410  0.784780  0.789040  0.770180  0.749330  0.749430  0.742590  0.714230  0.706580  0.734760  0.749730  0.727190  0.708240  0.717660  0.721200  0.708350  0.718900  0.746580  0.741050  0.714230  0.711480  0.721250  0.714690  0.692980  0.664700  0.648550  0.667740  0.704950  0.715300  0.691800  0.674650  0.684520  0.688570  0.665140  0.648660  0.669340  0.703090  0.716870  0.716130  0.716750  0.715960  0.714910  0.719220  0.714050  0.690260  0.675150  0.684790  0.687770  0.665830  0.647040  0.646450  0.657200  0.690370  0.739410  0.750360  0.707000  0.679090  0.701070  0.716650  0.713800  0.724860  0.708680  0.657540  0.653880  0.687730  0.686480  0.685210  0.726220  0.753070  0.723520  0.672710  0.648390  0.660380  0.689070  0.713320  0.709950  0.672850  0.647370  0.665370  0.684320  0.681600  0.696030  0.719120  0.696210  0.640730  0.611810  0.613690  0.615970  0.614750  0.614530  0.623090  0.661510  0.709410  0.721810  0.715080  0.716790  0.704530  0.673980  0.651680  0.643460  0.655290  0.702970  0.752660  0.737440  0.664810  0.603010  0.576600  0.577730  0.600940  0.617100  0.614690  0.627900  0.655760  0.653520  0.626530  0.611550  0.588760  0.550020  0.557050  0.607320  0.636130  0.657180  0.681680  0.667970  0.643540  0.647350  0.650590  0.649000  0.650210  0.631480  0.610180  0.613620  0.618500  0.613110  0.614290  0.618730  0.609480  0.584880  0.572470  0.588100  0.585310  0.553400  0.551690  0.551940  0.502440  0.481170  0.511610 
Shapelet   3   0.152680  0.131500  0.110330  0.152680  0.152680  0.110330  0.131500  0.152680  0.089150  0.025621  0.004445  0.046797  0.067973  0.089150  0.067973  0.067973  0.046797  0.067973  0.067973  0.089150  0.067973 -0.016732 -0.059084  0.025621  0.131500  0.152680  0.067973 -0.037908 -0.143790 -0.164970 -0.080261  0.025621  0.004445  0.004445  0.046797  0.046797 -0.037908 -0.016732  0.046797  0.046797  0.004445 -0.016732 -0.016732 -0.037908 -0.059084 -0.080261 -0.016732  0.046797  0.025621 -0.016732 -0.016732  0.046797  0.089150  0.046797 -0.037908 -0.122610 -0.164970 -0.101440  0.025621  0.046797  0.067973  0.089150  0.067973  0.025621 -0.016732 -0.059084 -0.101440 -0.122610 -0.101440 -0.143790 -0.143790 -0.037908  0.004445  0.004445 -0.016732 -0.016732 -0.059084 -0.059084 -0.037908 -0.016732 -0.037908 -0.037908 -0.016732 -0.016732  0.004445 -0.059084 -0.122610 -0.164970 -0.122610 -0.080261 -0.059084 -0.059084 -0.080261 -0.143790 -0.143790 -0.016732  0.067973  0.067973  0.110330  0.131500  0.067973  0.046797  0.025621  0.004445  0.004445 -0.016732 -0.059084 -0.037908 -0.016732 -0.037908 -0.059084 -0.016732  0.004445 -0.016732 -0.016732 -0.016732  0.067973  0.131500  0.152680  0.131500  0.131500  0.089150  0.004445 -0.037908 -0.016732  0.004445  0.004445  0.025621  0.046797  0.046797  0.089150  0.089150  0.067973  0.067973  0.152680  0.173850  0.131500  0.110330  0.089150  0.110330  0.089150  0.067973  0.046797  0.046797  0.046797  0.004445 -0.016732  0.025621  0.025621 -0.037908 -0.037908  0.004445  0.067973  0.110330  0.089150  0.067973  0.089150  0.131500  0.152680  0.173850  0.195030  0.131500  0.067973  0.089150  0.110330  0.110330  0.089150  0.089150  0.131500  0.110330  0.110330  0.067973  0.110330  0.195030  0.237380  0.195030  0.195030  0.152680  0.152680  0.152680  0.173850  0.152680  0.152680  0.131500  0.152680  0.216210  0.195030  0.152680  0.110330  0.046797  0.067973  0.110330  0.152680  0.152680  0.089150  0.067973  0.067973  0.089150  0.131500  0.152680  0.152680  0.131500  0.067973  0.089150  0.131500  0.216210  0.216210  0.152680  0.089150  0.046797  0.046797  0.067973  0.089150  0.089150  0.089150  0.110330  0.152680  0.152680  0.152680  0.216210  0.216210  0.258560  0.258560  0.237380  0.237380  0.258560  0.216210  0.131500  0.089150  0.089150  0.110330  0.131500  0.131500  0.089150  0.067973  0.089150  0.004445  0.004445  0.110330  0.131500  0.173850  0.237380  0.258560  0.216210  0.216210  0.258560  0.216210  0.173850  0.089150  0.089150  0.152680  0.152680  0.131500  0.089150  0.110330  0.152680  0.152680  0.173850  0.237380  0.300910  0.195030  0.152680  0.110330  0.152680  0.131500  0.152680  0.195030  0.195030  0.173850  0.131500  0.131500  0.131500  0.131500  0.131500  0.131500  0.152680  0.173850  0.195030  0.195030  0.195030  0.195030  0.152680  0.152680  0.152680  0.195030  0.195030  0.173850  0.152680  0.152680  0.110330  0.089150  0.089150  0.089150  0.131500  0.089150  0.025621 -0.037908  0.089150  0.195030  0.258560  0.258560  0.279740  0.279740  0.237380  0.216210  0.237380  0.195030  0.173850  0.173850  0.152680  0.173850  0.216210  0.237380  0.216210  0.195030  0.216210  0.216210  0.195030  0.173850  0.216210  0.173850  0.067973  0.046797  0.110330  0.152680  0.110330  0.110330  0.131500  0.110330  0.110330  0.173850  0.110330  0.067973  0.131500  0.152680  0.173850  0.152680  0.173850  0.173850  0.216210  0.258560  0.279740  0.237380  0.195030  0.173850  0.216210  0.258560  0.216210  0.173850  0.152680  0.152680  0.131500  0.131500  0.152680  0.131500  0.089150  0.089150  0.110330  0.131500  0.173850  0.152680  0.110330  0.046797  0.046797  0.046797  0.004445 -0.059084 -0.080261 -0.080261 -0.143790 -0.143790 -0.207320 -0.292020 -0.355550 -0.376730 -0.355550 -0.355550 -0.376730 -0.419080 -0.440260 -0.440260 -0.440260 -0.397900 -0.355550 -0.355550 -0.376730 -0.376730 -0.334380 -0.334380 -0.397900 -0.376730 -0.334380 -0.334380 -0.355550 -0.376730 -0.334380 -0.186140 -0.080261  0.004445  0.046797  0.089150  0.089150  0.067973  0.067973  0.046797  0.025621  0.025621  0.004445 -0.101440 -0.207320 -0.292020 -0.228490 -0.228490 -0.292020 -0.313200 -0.355550 -0.355550 -0.313200 -0.292020 -0.292020 -0.292020 -0.292020 -0.292020 -0.249670 -0.207320 -0.122610  0.004445  0.131500  0.195030  0.195030  0.195030  0.195030  0.279740  0.343260  0.343260  0.300910  0.258560  0.237380  0.173850  0.152680  0.152680  0.216210  0.237380  0.237380  0.216210  0.279740  0.322090  0.322090  0.279740  0.258560  0.258560  0.173850  0.152680  0.131500  0.089150  0.067973  0.067973  0.067973  0.067973  0.089150  0.067973  0.004445 -0.059084 -0.059084  0.046797  0.067973  0.110330  0.110330  0.131500  0.173850  0.237380  0.279740  0.279740  0.216210  0.216210  0.216210  0.216210  0.237380  0.343260  0.427970  0.364440  0.258560  0.195030  0.195030  0.279740  0.279740  0.216210  0.173850  0.195030  0.237380  0.279740  0.258560  0.258560  0.300910  0.279740  0.216210  0.173850  0.216210  0.216210  0.258560  0.258560  0.237380  0.195030  0.131500  0.131500  0.152680  0.173850  0.131500  0.067973  0.025621  0.025621  0.110330  0.216210  0.258560  0.216210  0.152680  0.110330  0.131500  0.110330  0.089150  0.089150  0.131500  0.131500  0.152680  0.131500  0.131500  0.173850  0.195030  0.173850  0.110330  0.004445 -0.080261 -0.207320 -0.440260 -0.588490 -0.736730 -0.927310 -1.054400 -1.075500 -1.181400 -1.350800 -1.520200 -1.710800 -1.859100 -2.007300 -2.113200 -2.197900 -2.303800 -2.452000 -2.579100 -2.557900 -2.473200 -2.409700 -2.240200 -2.028500 -1.880200 -1.774400 -1.605000 -1.393200 -1.223800 -1.223800 -1.287300 -1.393200 -1.520200 -1.626100 -1.583800 -1.245000 -0.524960  0.406790  1.253800  2.185600 


; cmd = /home/grad00/soren885/capstone/ShapeletResearch/Execs/FastShapelet /home/grad00/soren885/capstone/Shapelet_Datasets/UCR_Master/CinC_ECG_torso_TRAIN 4 40 820 1 2 10 correlation 0 0 10 ./replications/CinC_ECG_torso/CinC_ECG_torso_correlation_unnormed_NOCID_REP10_tree.txt ./replications/CinC_ECG_torso/CinC_ECG_torso_correlation_unnormed_NOCID_REP10_time.txt
; time =>  994.485  10.210  44.633   3.727 931.334 
; command = /home/grad00/soren885/capstone/ShapeletResearch/Execs/Classify /home/grad00/soren885/capstone/Shapelet_Datasets/UCR_Master/CinC_ECG_torso_TEST 4 1380 correlation 0 0 ./replications/CinC_ECG_torso/CinC_ECG_torso_correlation_unnormed_NOCID_REP10_tree.txt ./replications/CinC_ECG_torso/CinC_ECG_torso_correlation_unnormed_NOCID_REP10_acc.txt
; accuracy= 71.449   Correct:986 , Wrong: 394


;   == Confusion Matrix ==
;   real |   3    2    4    1 
;   -----+------------------------
;   p  3 | 180   28    0    0 
;   p  2 | 154  281    0   27 
;   p  4 |   9   22  324  122 
;   p  1 |   0   11   21  201 

