;Shapelet Tree 

;random seed:1503375824, rand()=834465389, rand()=1182339747
;command = /home/grad00/soren885/capstone/ShapeletResearch/Execs/FastShapelet /home/grad00/soren885/capstone/Shapelet_Datasets/UCR_Master/CinC_ECG_torso_TRAIN 4 40 820 1 2 10 manhattan 1 0 10 ./replications/CinC_ECG_torso/CinC_ECG_torso_manhattan_unnormed_CID_REP08_tree.txt ./replications/CinC_ECG_torso/CinC_ECG_torso_manhattan_unnormed_CID_REP08_time.txt 

;Local Class:   0  1  2  3 
;Real  Class:   1  3  4  2 

;Node ID class   obj  pos  len  dist_th 
TreeSize: 24 
NonL  1    --     12   40  729  742.3002 ==>   3  12   0  13  /   2   0  10   0 
NonL  2    --      9  1019  383  118.5369 ==>   1   1   0  12  /   2  11   0   1 
NonL  3    --      5  847  735  2424.0991 ==>   0   0  10   0  /   2   0   0   0 
NonL  4    --     10  353  415  231.6978 ==>   1   1   0   0  /   0   0   0  12 
NonL  5    --      5  1001  467  651.1331 ==>   0  11   0   0  /   2   0   0   1 
Leaf  6     4    
Leaf  7     1    
NonL  8    --      0   82  715  293.4951 ==>   0   1   0   0  /   1   0   0   0 
Leaf  9     2    
Leaf 10     3    
NonL 11    --      0  611   27  202.8281 ==>   2   0   0   0  /   0   0   0   1 
Leaf 16     3    
Leaf 17     1    
Leaf 22     1    
Leaf 23     2    

;Shapelet id   <data>
Shapelet   1  -0.219800 -0.207620 -0.235890 -0.243130 -0.127440  0.079781  0.073449  0.056042  0.057545  0.060449  0.059443  0.070271  0.081136  0.079584  0.084446  0.098635  0.096396  0.076060  0.061634  0.059754  0.059916  0.059132  0.059847  0.060276  0.059150  0.059180  0.061287  0.059531  0.048548  0.036203  0.036166  0.048661  0.059537  0.060932  0.059475  0.059762  0.059008  0.059308  0.067948  0.082865  0.095213  0.104750  0.117270  0.132140  0.140100  0.131010  0.110540  0.099720  0.102880  0.099028  0.084361  0.080093  0.082316  0.065787  0.039729  0.033561  0.042212  0.042199  0.036153  0.039068  0.050828  0.061595  0.062430  0.056063  0.058179  0.072592  0.079493  0.067643  0.055073  0.057643  0.069062  0.080997  0.093349  0.102870  0.102170  0.090738  0.079603  0.085348  0.108260  0.121590  0.110170  0.099772  0.110680  0.120490  0.108170  0.089661  0.080469  0.071375  0.056550  0.044025  0.034716  0.021944  0.013138  0.021731  0.036755  0.038612  0.037395  0.054868  0.081262  0.095189  0.103210  0.116160  0.123680  0.119870  0.117170  0.121290  0.121720  0.116600  0.119160  0.132050  0.140990  0.140490  0.140160  0.140410  0.131940  0.117390  0.105350  0.094026  0.081690  0.076937  0.079931  0.072483  0.049529  0.037437  0.055302  0.080309  0.084460  0.077718  0.078299  0.081286  0.079861  0.078741  0.080177  0.080694  0.075972  0.061574  0.049633  0.065770  0.104570  0.127680  0.121930  0.114490  0.121070  0.124580  0.113510  0.101160  0.099417  0.099561  0.089603  0.073802  0.061959  0.056990  0.059722  0.070828  0.082530  0.082664  0.074968  0.078696  0.100980  0.123880  0.125840  0.110330  0.099874  0.106610  0.122540  0.135550  0.142150  0.141180  0.131880  0.118470  0.105610  0.097143  0.097995  0.103970  0.099432  0.084308  0.081017  0.094853  0.104170  0.100060  0.096941  0.101050  0.101670  0.096895  0.098871  0.110810  0.121140  0.121490  0.118470  0.119390  0.121020  0.119520  0.118540  0.121170  0.121110  0.112490  0.098898  0.085964  0.077119  0.077222  0.088069  0.099786  0.101890  0.098945  0.099020  0.100580  0.099915  0.099057  0.100050  0.100230  0.099140  0.099581  0.100740  0.099356  0.097805  0.103970  0.117230  0.124890  0.118710  0.105970  0.095947  0.084180  0.067712  0.059759  0.068964  0.084961  0.096782  0.103340  0.100200  0.086559  0.079638  0.091565  0.110070  0.119450  0.120370  0.119670  0.119460  0.120180  0.120030  0.118900  0.120130  0.121100  0.118380  0.118710  0.123100  0.119280  0.113140  0.128610  0.155420  0.158030  0.139970  0.134020  0.142500  0.143130  0.132550  0.120680  0.109130  0.096771  0.084392  0.075978  0.078375  0.090745  0.100760  0.101110  0.098931  0.099516  0.100040  0.099760  0.099741  0.099428  0.099062  0.104840  0.120360  0.135550  0.140170  0.139380  0.141310  0.140070  0.135900  0.143280  0.157250  0.159380  0.159110  0.171890  0.179800  0.167370  0.155640  0.158790  0.162130  0.159550  0.159560  0.158030  0.144470  0.127270  0.119550  0.111380  0.091350  0.077978  0.093373  0.119730  0.125620  0.117360  0.117350  0.122680  0.120270  0.116440  0.121440  0.123700  0.111700  0.100080  0.106380  0.122310  0.134080  0.145860  0.158190  0.161810  0.159750  0.159790  0.159350  0.159060  0.162570  0.159650  0.146060  0.138980  0.140690  0.133600  0.120240  0.117040  0.120520  0.120190  0.119890  0.120040  0.117300  0.121640  0.134740  0.141830  0.140140  0.139920  0.139530  0.137240  0.144610  0.157810  0.161290  0.159920  0.161200  0.157770  0.156350  0.174440  0.199850  0.213350  0.222830  0.225150  0.204690  0.180890  0.178570  0.178330  0.164020  0.161510  0.177720  0.184770  0.178900  0.177940  0.180890  0.179920  0.184230  0.202140  0.226530  0.247540  0.258820  0.260350  0.260120  0.261250  0.257740  0.245270  0.230740  0.220390  0.210450  0.194770  0.170530  0.147490  0.139720  0.142230  0.138310  0.134400  0.150940  0.176550  0.188970  0.202820  0.237210  0.275290  0.296820  0.309290  0.320720  0.323230  0.318460  0.319110  0.319670  0.300440  0.263630  0.232130  0.210260  0.179980  0.142560  0.115590  0.094258  0.060127  0.016044 -0.016796 -0.038068 -0.065850 -0.101770 -0.136110 -0.171420 -0.217190 -0.265140 -0.309620 -0.365020 -0.426180 -0.466880 -0.481430 -0.490440 -0.507520 -0.530370 -0.565610 -0.618820 -0.679510 -0.735340 -0.782390 -0.825770 -0.859190 -0.869580 -0.857890 -0.833140 -0.810840 -0.801370 -0.807350 -0.824040 -0.845110 -0.876190 -0.913010 -0.942750 -0.963050 -0.982630 -1.015600 -1.063800 -1.122100 -1.182000 -1.226000 -1.244200 -1.232400 -1.201400 -1.165200 -1.129100 -1.092900 -1.046400 -0.991720 -0.946850 -0.919230 -0.897770 -0.871770 -0.856200 -0.859710 -0.865430 -0.860690 -0.847520 -0.837260 -0.826140 -0.805260 -0.781160 -0.764460 -0.759980 -0.749560 -0.719570 -0.682960 -0.660920 -0.663460 -0.675970 -0.687170 -0.699880 -0.713440 -0.722240 -0.722330 -0.718800 -0.705840 -0.674030 -0.636930 -0.610280 -0.595140 -0.583930 -0.572390 -0.560630 -0.555160 -0.566970 -0.580660 -0.575030 -0.561480 -0.552170 -0.532980 -0.495800 -0.462130 -0.442560 -0.421160 -0.394730 -0.370910 -0.348320 -0.324280 -0.306150 -0.300200 -0.292050 -0.266030 -0.228900 -0.192220 -0.157410 -0.129510 -0.115610 -0.092651 -0.042385  0.000273  0.012189  0.028243  0.066939  0.094473  0.099647  0.109050  0.122760  0.123170  0.114500  0.101800  0.079945  0.055635  0.042294  0.038439  0.038891  0.046922  0.061700  0.074699  0.083261  0.095200  0.116640  0.141140  0.156920  0.158640  0.145800  0.127660  0.119860  0.121240  0.118040  0.115640  0.132800  0.158420  0.165530  0.158190  0.157380  0.162040  0.160370  0.161980  0.185160  0.222700  0.250620  0.259620  0.259980  0.260070  0.259600  0.260540  0.260940  0.254040  0.239700  0.225530  0.218250  0.218030  0.225590  0.239360  0.252500  0.262420  0.273600  0.288890  0.299610  0.299810  0.301000  0.312180  0.327390  0.338430  0.348270  0.362050  0.375040  0.382320  0.381600  0.373100  0.359400  0.345360  0.338540  0.339160  0.341210  0.340270  0.338020  0.342150  0.354090  0.369040  0.379770  0.381730  0.379600  0.379060  0.381110  0.380650  0.377540  0.381510  0.393660  0.403350  0.401540  0.396680  0.400930  0.404480  0.394410  0.381180  0.384620  0.400680  0.412910  0.424180  0.436910  0.442480  0.440530  0.439190  0.440420  0.440060  0.440760  0.440800  0.432080  0.417200  0.403960  0.397760  0.399070  0.408120  0.421740  0.425250  0.413620  0.401350  0.399950  0.400120  0.396510  0.404550  0.418060  0.419020  0.420240  0.439710  0.467960  0.490560  0.516350  0.539400  0.542690  0.540820  0.552180  0.568730  0.579110  0.594450  0.627080  0.674170  0.724610  0.771590  0.816920  0.865700  0.909580  0.923350  0.909350  0.883150  0.839960  0.755360  0.606460  0.416430  0.206720 -0.009432 -0.228770 -0.461570 -0.695590 -0.941970 -1.208500 -1.495000 -1.803600 -2.136300 -2.521100 -2.928600 -3.319900 -3.691400 -4.038800 -4.360200 -4.639100 -4.899200 -5.164100 -5.438400 -5.741700 -6.051500 -6.339200 -6.588900 -6.791400 -6.953200 -7.060100 -7.124100 -7.152300 -7.120900 -7.021100 -6.845800 -6.628900 -6.404000 -6.193500 -6.024400 -5.861300 -5.679400 -5.502600 -5.372300 -5.304400 -5.275700 -5.308300 -5.401200 -5.475500 -5.468800 -5.364000 -5.215600 -5.053000 -4.856900 -4.603500 -4.257500 -3.825200 -3.330000 -2.798600 -2.251500 -1.668700 -1.066200 -0.510170 -0.092059  0.135180 
Shapelet   2   0.360300  0.360320  0.361850  0.357060  0.344020  0.335580  0.340040  0.351590  0.362640  0.363530  0.352060  0.340720  0.339380  0.339190  0.327220  0.314260  0.317960  0.333280  0.339880  0.328420  0.314860  0.317240  0.331450  0.340470  0.339950  0.340670  0.341070  0.336760  0.340390  0.354460  0.359370  0.346160  0.330910  0.320680  0.314750  0.323850  0.338750  0.334860  0.320940  0.325070  0.343380  0.355430  0.365520  0.378360  0.382840  0.379890  0.379610  0.378520  0.365230  0.346820  0.340210  0.341820  0.336840  0.323670  0.316520  0.320090  0.322140  0.318890  0.318390  0.322260  0.320670  0.316040  0.322080  0.325520  0.309500  0.298870  0.318650  0.342280  0.342730  0.339730  0.341270  0.330260  0.320060  0.330520  0.343410  0.341490  0.339170  0.340210  0.330420  0.315430  0.304070  0.291810  0.280520  0.277840  0.280480  0.280190  0.280210  0.280510  0.271790  0.257680  0.254550  0.267430  0.279240  0.279210  0.280800  0.292670  0.302890  0.301040  0.302030  0.321330  0.340190  0.335830  0.321890  0.320960  0.320390  0.306680  0.299690  0.302000  0.292000  0.280180  0.289750  0.300580  0.288210  0.274810  0.278840  0.282930  0.279440  0.278460  0.281090  0.280890  0.274000  0.258570  0.242680  0.240850  0.242520  0.226280  0.199720  0.183440  0.178920  0.178340  0.185530  0.199300  0.204300  0.197890  0.196020  0.207450  0.219250  0.220660  0.220090  0.221370  0.215630  0.202270  0.195130  0.201080  0.212520  0.225720  0.238200  0.237950  0.218930  0.200060  0.203930  0.218280  0.215520  0.200280  0.196290  0.200320  0.189090  0.166420  0.159310  0.172000  0.179890  0.167880  0.153930  0.157970  0.167130  0.156800  0.130650  0.115290  0.118240  0.122560  0.119460  0.117550  0.121470  0.121390  0.116000  0.119970  0.133810  0.140560  0.139400  0.142050  0.140430  0.126790  0.119390  0.121550  0.113170  0.100490  0.100740  0.098082  0.083787  0.080163  0.081703  0.061970  0.037938  0.036071  0.040647  0.039053  0.046674  0.060127  0.061238  0.060939  0.074341  0.086172  0.080115  0.065864  0.058662  0.058996  0.060395  0.059873  0.058658  0.060703  0.070949  0.092359  0.117010  0.122190  0.094046  0.054298  0.032524  0.022685  0.007414 -0.000201  0.011444  0.022250  0.020579  0.019815  0.019626  0.008562 -0.002735 -0.001531 -0.002362 -0.019088 -0.037668 -0.038962 -0.026492 -0.013313 -0.001741  0.005588 -0.003531 -0.028121 -0.049398 -0.059284 -0.063409 -0.059439 -0.046472 -0.038556 -0.040291 -0.035594 -0.019717 -0.013111 -0.026527 -0.039608 -0.038324 -0.040176 -0.054618 -0.059589 -0.046024 -0.036617 -0.040016 -0.041190 -0.041043 -0.052118 -0.069181 -0.079611 -0.082416 -0.079685 -0.069503 -0.050962 -0.026202 -0.004876 -0.000761 -0.012659 -0.023150 -0.021983 -0.017929 -0.020436 -0.022877 -0.018709 -0.018071 -0.024841 -0.021228 -0.004767 -0.001902 -0.015982 -0.021297 -0.019760 -0.031402 -0.040177 -0.019160  0.016986  0.038015  0.041445  0.039462  0.038167  0.042778  0.055930  0.066060  0.059137  0.044003  0.039831  0.041443  0.031667  0.019774  0.026909  0.043680  0.044219  0.033668  0.038218  0.054986  0.059145  0.056028  0.068019  0.079978  0.069450  0.059716  0.071844  0.082518  0.079827  0.085856  0.100680  0.103180  0.098128  0.098893  0.100650  0.099813  0.100060  0.099138  0.098104  0.105980  0.119200  0.123390  0.118360  0.116990  0.125550  0.138210  0.150370  0.161560  0.164100  0.153160  0.141000  0.139200  0.139670  0.137420  0.144260  0.157590  0.161110  0.160030  0.169580  0.185030  0.196340  0.207880  0.219790  0.223150  0.217740  0.206150  0.190340  0.180250  0.180670  0.178420  0.165740  0.156190  0.158620  0.168560  0.181660  0.185780  0.171790  0.159540  0.168510  0.180290  0.178790  0.183610  0.197820  0.196300  0.179860  0.167760  0.154150  0.128680  0.111440  0.118830  0.133960  0.141030  0.150760  0.174430  0.198040  0.203920 
Shapelet   3   0.378970  0.379990  0.380090  0.381190  0.391240  0.398000  0.392790  0.392720  0.398140  0.397420  0.399400  0.404080  0.403120  0.407050  0.417100  0.421040  0.423080  0.428790  0.432730  0.435640  0.440810  0.444860  0.447550  0.453500  0.461970  0.469710  0.478200  0.486600  0.491250  0.494300  0.499030  0.505790  0.514980  0.523290  0.529770  0.540560  0.553570  0.561570  0.568560  0.577900  0.585630  0.592700  0.602260  0.613630  0.626300  0.638560  0.646550  0.652590  0.663150  0.675470  0.684040  0.693080  0.705290  0.717060  0.730430  0.747010  0.760990  0.771500  0.784060  0.797570  0.806780  0.815130  0.829450  0.845940  0.857810  0.868330  0.881650  0.894260  0.905070  0.917880  0.930820  0.941390  0.955320  0.973390  0.989350  1.002500  1.015600  1.030500  1.048100  1.063900  1.075100  1.088600  1.107200  1.123600  1.133400  1.141500  1.153300  1.169400  1.185000  1.196800  1.210300  1.228800  1.245100  1.258700  1.278300  1.299300  1.312000  1.323600  1.341900  1.359100  1.370900  1.385000  1.403800  1.422500  1.439800  1.458200  1.477700  1.494100  1.508600  1.525500  1.542500  1.557500  1.573800  1.591000  1.606300  1.622200  1.639400  1.655000  1.671000  1.687400  1.699100  1.711100  1.731900  1.752600  1.764800  1.778100  1.795400  1.808000  1.819100  1.832500  1.846400  1.864200  1.881300  1.891600  1.905400  1.923900  1.938300  1.954700  1.972600  1.983400  1.994200  2.008900  2.023100  2.040300  2.057000  2.064400  2.069600  2.081300  2.093100  2.101200  2.111100  2.122900  2.134500  2.147800  2.160100  2.168200  2.176800  2.185500  2.189500  2.193300  2.198200  2.203400  2.213900  2.222800  2.222100  2.221800  2.223600  2.220900  2.223400  2.229700  2.228200  2.227500  2.229700  2.224400  2.218700  2.217400  2.212500  2.205000  2.198400  2.189400  2.180000  2.174100  2.165900  2.153200  2.142900  2.131200  2.111500  2.092400  2.076800  2.059100  2.045200  2.034100  2.015100  1.993500  1.974600  1.953300  1.933200  1.914300  1.889600  1.864100  1.841800  1.819500  1.799300  1.775300  1.741300  1.709800  1.684100  1.654800  1.625100  1.599000  1.573400  1.549600  1.525700  1.496800  1.467300  1.440400  1.411800  1.382200  1.355500  1.331200  1.307500  1.282100  1.253700  1.227000  1.204000  1.175800  1.141000  1.112400  1.089500  1.061500  1.032700  1.010300  0.989750  0.967610  0.943930  0.918500  0.894340  0.871100  0.845840  0.821270  0.798120  0.776360  0.758020  0.736930  0.708100  0.680160  0.658490  0.638040  0.617170  0.597950  0.581460  0.566720  0.548810  0.528160  0.511020  0.494460  0.473940  0.455420  0.440830  0.424640  0.409490  0.400970  0.393330  0.378640  0.360290  0.345170  0.332840  0.319120  0.302900  0.288570  0.280170  0.272310  0.259930  0.247420  0.235770  0.223060  0.211480  0.199110  0.185740  0.178780  0.175760  0.167740  0.157990  0.151230  0.143380  0.131990  0.119830  0.111610  0.107940  0.102440  0.094048  0.088621  0.085298  0.081253  0.077651  0.071887  0.063609  0.058202  0.055222  0.051140  0.046744  0.042670  0.038965  0.035276  0.028974  0.020828  0.015694  0.013262  0.008567  0.003452  0.002767  0.002692 -0.001358 -0.006066 -0.009687 -0.014019 -0.016306 -0.014791 -0.014640 -0.016330 -0.014478 -0.013985 -0.021392 -0.028598 -0.032064 -0.039333 -0.047170 -0.050550 -0.054507 -0.057926 -0.057158 -0.056391 -0.058181 -0.062537 -0.067842 -0.069090 -0.068845 -0.072859 -0.076169 -0.074837 -0.074166 -0.076919 -0.081168 -0.085452 -0.089171 -0.093395 -0.097916 -0.099609 -0.098739 -0.098549 -0.100830 -0.106030 -0.110330 -0.112360 -0.119100 -0.127810 -0.129080 -0.129600 -0.134180 -0.135130 -0.135500 -0.140050 -0.143930 -0.149470 -0.157950 -0.162760 -0.167200 -0.176090 -0.182270 -0.182340 -0.182590 -0.186340 -0.190980 -0.194700 -0.198630 -0.203230 -0.206750 -0.207210 -0.205860 -0.206930 -0.211060 -0.214990 -0.219520 -0.227690 -0.235200 -0.236340 -0.235880 -0.239670 -0.242910 -0.242490 -0.244480 -0.250230 -0.254060 -0.256830 -0.262640 -0.266400 -0.265630 -0.268050 -0.272250 -0.272110 -0.273890 -0.278270 -0.278420 -0.279700 -0.284360 -0.285120 -0.284050 -0.284390 -0.284040 -0.286120 -0.290660 -0.291280 -0.289290 -0.290810 -0.295160 -0.297420 -0.295900 -0.291900 -0.287100 -0.284010 -0.284090 -0.285060 -0.283770 -0.279570 -0.274760 -0.271620 -0.267600 -0.259790 -0.252350 -0.248830 -0.245620 -0.240420 -0.236670 -0.236410 -0.235980 -0.230870 -0.222480 -0.215980 -0.212560 -0.208960 -0.204110 -0.200460 -0.196950 -0.191630 -0.188470 -0.185540 -0.176990 -0.170170 -0.167070 -0.158450 -0.152600 -0.157410 -0.158210 -0.151220 -0.147460 -0.142820 -0.131660 -0.123580 -0.120990 -0.114070 -0.105620 -0.104560 -0.104240 -0.099477 -0.095706 -0.090225 -0.081506 -0.076529 -0.073585 -0.069061 -0.065217 -0.060757 -0.056895 -0.056836 -0.057062 -0.056965 -0.057695 -0.055001 -0.050699 -0.050561 -0.051458 -0.051058 -0.054758 -0.061310 -0.062845 -0.062297 -0.066452 -0.068892 -0.064339 -0.061270 -0.064185 -0.068237 -0.072018 -0.076456 -0.080356 -0.084100 -0.088784 -0.092620 -0.093293 -0.093368 -0.098258 -0.106960 -0.113280 -0.116680 -0.120680 -0.125000 -0.128810 -0.132990 -0.136980 -0.141000 -0.145320 -0.148740 -0.153390 -0.161580 -0.168840 -0.170700 -0.170360 -0.172780 -0.177680 -0.181810 -0.184940 -0.190300 -0.198640 -0.205270 -0.206560 -0.206280 -0.209550 -0.213590 -0.212990 -0.211000 -0.214950 -0.223650 -0.229360 -0.231390 -0.236070 -0.241760 -0.242000 -0.242400 -0.249990 -0.257770 -0.260490 -0.263920 -0.269390 -0.272580 -0.276020 -0.282020 -0.284370 -0.283670 -0.287190 -0.290570 -0.290080 -0.292840 -0.296820 -0.296420 -0.298270 -0.303370 -0.303140 -0.300550 -0.303850 -0.308100 -0.307840 -0.309430 -0.313900 -0.314570 -0.314990 -0.319810 -0.321820 -0.319040 -0.320050 -0.324940 -0.326260 -0.326270 -0.330180 -0.333220 -0.332230 -0.331830 -0.332600 -0.332210 -0.331840 -0.333750 -0.338980 -0.343700 -0.343860 -0.344700 -0.349090 -0.350950 -0.350060 -0.350150 -0.349940 -0.350710 -0.354980 -0.359870 -0.362780 -0.362640 -0.358830 -0.355410 -0.355960 -0.356910 -0.355520 -0.355940 -0.360060 -0.362850 -0.362260 -0.361840 -0.362360 -0.362210 -0.362030 -0.362230 -0.362200 -0.362110 -0.362180 -0.362190 -0.362120 -0.362290 -0.362030 -0.358360 -0.352090 -0.350490 -0.354860 -0.357320 -0.355790 -0.355740 -0.357160 -0.355250 -0.350900 -0.349300 -0.350610 -0.350480 -0.349060 -0.351990 -0.360930 -0.368080 -0.366640 -0.362380 -0.362130 -0.361120 -0.356400 -0.354640 -0.358330 -0.362220 -0.362720 -0.361590 -0.362280 -0.363020 -0.359820 -0.356000 -0.355810 -0.356260 -0.356340 -0.360050 -0.365920 -0.368250 -0.368010 -0.368710 -0.367510 -0.363140 -0.360900 -0.363020 -0.367170 -0.371800 -0.374640 -0.374310 -0.373890 -0.373780 -0.369060 -0.362580 -0.363530 -0.368010 -0.368040 -0.369340 -0.374060 -0.374930 -0.373580 -0.374190 -0.374340 -0.373870 -0.374230 -0.377200 -0.385220 -0.392550 -0.392860 -0.391310 -0.392310 -0.392620 -0.389840 -0.385360 -0.384890 -0.389950 -0.392010 -0.391460 -0.395790 -0.397710 -0.392930 -0.391190 -0.392200 -0.391920 -0.395090 -0.398980 -0.398300 -0.397480 -0.398360 -0.398160 -0.397820 -0.398190 -0.398130 -0.397900 -0.398160 -0.398120 -0.397860 -0.398280 -0.398060 -0.397630 -0.398800 -0.397740 -0.393230 -0.391450 -0.392140 -0.391820 -0.393960 -0.399100 -0.403240 -0.405100 -0.403180 -0.398790 -0.397370 -0.398220 -0.398010 -0.400090 -0.406170 -0.410050 -0.407440 -0.402020 -0.398320 -0.397440 -0.398570 
Shapelet   4  -0.056581 -0.065549 -0.065549 -0.056581 -0.056581 -0.056581 -0.056581 -0.061065 -0.065549 -0.065549 -0.065549 -0.061065 -0.061065 -0.070033 -0.070033 -0.061065 -0.061065 -0.061065 -0.061065 -0.056581 -0.043129 -0.038644 -0.052097 -0.061065 -0.052097 -0.047613 -0.052097 -0.065549 -0.079002 -0.083486 -0.087970 -0.083486 -0.079002 -0.070033 -0.070033 -0.079002 -0.087970 -0.074517 -0.047613 -0.034160 -0.034160 -0.034160 -0.038644 -0.052097 -0.052097 -0.056581 -0.056581 -0.052097 -0.052097 -0.056581 -0.056581 -0.038644 -0.034160 -0.038644 -0.047613 -0.052097 -0.056581 -0.056581 -0.052097 -0.043129 -0.056581 -0.065549 -0.070033 -0.056581 -0.052097 -0.056581 -0.061065 -0.061065 -0.061065 -0.056581 -0.047613 -0.056581 -0.052097 -0.052097 -0.047613 -0.052097 -0.056581 -0.052097 -0.047613 -0.038644 -0.029676 -0.025192 -0.034160 -0.038644 -0.043129 -0.043129 -0.038644 -0.043129 -0.061065 -0.065549 -0.061065 -0.052097 -0.047613 -0.047613 -0.043129 -0.034160 -0.038644 -0.047613 -0.034160 -0.020708 -0.016224 -0.016224 -0.007256  0.001713  0.006197  0.019649  0.024133  0.037586  0.042070  0.051038  0.073459  0.095879  0.104850  0.100360  0.104850  0.113820  0.118300  0.127270  0.131750  0.131750  0.136240  0.140720  0.158660  0.181080  0.181080  0.176590  0.181080  0.185560  0.190050  0.190050  0.190050  0.194530  0.194530  0.194530  0.194530  0.207980  0.234890  0.248340  0.257310  0.252820  0.239370  0.230400  0.234890  0.252820  0.266280  0.266280  0.270760  0.270760  0.252820  0.234890  0.216950  0.203500  0.190050  0.176590  0.158660  0.140720  0.127270  0.127270  0.127270  0.104850  0.073459  0.046554  0.006197 -0.029676 -0.061065 -0.087970 -0.101420 -0.123840 -0.146260 -0.173170 -0.191100 -0.213530 -0.222490 -0.222490 -0.209040 -0.195590 -0.186620 -0.177650 -0.191100 -0.209040 -0.231460 -0.235950 -0.235950 -0.240430 -0.244910 -0.231460 -0.222490 -0.213530 -0.218010 -0.218010 -0.213530 -0.204560 -0.191100 -0.168680 -0.141780 -0.110390 -0.092454 -0.083486 -0.087970 -0.083486 -0.079002 -0.070033 -0.056581 -0.047613 -0.034160 -0.029676 -0.025192 -0.038644 -0.070033 -0.083486 -0.092454 -0.110390 -0.132810 -0.146260 -0.150750 -0.155230 -0.155230 -0.141780 -0.123840 -0.105910 -0.114870 -0.141780 -0.155230 -0.150750 -0.150750 -0.155230 -0.168680 -0.164200 -0.150750 -0.146260 -0.137300 -0.132810 -0.128330 -0.123840 -0.123840 -0.123840 -0.128330 -0.110390 -0.101420 -0.092454 -0.083486 -0.074517 -0.079002 -0.092454 -0.096938 -0.092454 -0.083486 -0.087970 -0.096938 -0.105910 -0.105910 -0.083486 -0.061065 -0.056581 -0.061065 -0.074517 -0.083486 -0.070033 -0.070033 -0.070033 -0.056581 -0.052097 -0.065549 -0.056581 -0.056581 -0.056581 -0.052097 -0.043129 -0.047613 -0.056581 -0.061065 -0.070033 -0.092454 -0.132810 -0.168680 -0.231460 -0.307690 -0.361500 -0.401860 -0.482570 -0.585710 -0.679870 -0.765070 -0.827850 -0.868210 -0.881660 -0.854750 -0.760590 -0.617100 -0.401860 -0.164200 -0.038644 -0.061065 -0.271820 -0.679870 -1.182100 -1.617100 -2.020600 -2.585600 -3.182000 -3.751500 -4.312000 -4.989100 -5.715500 -6.316400 -6.755900 -7.024900 -7.190800 -7.329800 -7.437400 -7.455400 -7.388100 -7.334300 -7.338800 -7.361200 -7.361200 -7.267100 -7.137000 -6.926300 -6.675100 -6.459900 -6.222200 -5.980100 -5.755900 -5.576500 -5.455500 -5.343400 -5.141600 -4.868000 -4.603500 -4.316500 -4.016100 -3.711100 -3.442100 -3.249300 -3.105800 -2.975700 -2.760500 -2.424200 -2.052000 -1.697800 -1.357000 -1.029600 -0.738170 -0.491540 -0.294240 -0.141780 -0.025192  0.046554  0.095879  0.136240  0.167630  0.190050  0.207980  0.234890  0.252820  0.266280  0.284210  0.306630  0.338020  0.360440  0.382860  0.396320  0.405280  0.409770  0.427700  0.454610  0.472550  0.477030  0.481510  0.494970  0.499450  0.503930  0.530840  0.548780  0.553260  0.557740  0.566710  0.593620  0.611550  0.620520  0.616040  0.611550  0.620520  0.633970  0.647430  0.651910  0.651910  0.647430  0.647430  0.656390  0.660880  0.669850  0.678820  0.678820  0.678820  0.683300  0.687780  0.692270  0.687780  0.683300  0.687780  0.705720  0.719170  0.719170  0.710200  0.714690  0.719170  0.714690  0.719170  0.723660  0.723660  0.728140  0.714690  0.714690 
Shapelet   5  -0.427000 -0.426930 -0.426520 -0.427040 -0.424950 -0.414050 -0.404070 -0.406590 -0.413360 -0.415740 -0.416120 -0.412870 -0.403520 -0.394690 -0.392190 -0.393110 -0.393260 -0.391780 -0.386660 -0.375570 -0.363630 -0.358980 -0.359300 -0.357310 -0.352890 -0.345910 -0.335670 -0.330770 -0.334680 -0.337290 -0.336370 -0.336760 -0.333320 -0.323970 -0.318890 -0.321930 -0.325340 -0.325260 -0.325210 -0.324820 -0.318000 -0.305670 -0.295670 -0.288120 -0.282210 -0.287090 -0.299770 -0.302530 -0.295770 -0.291810 -0.289380 -0.284610 -0.277370 -0.267650 -0.262630 -0.263240 -0.260180 -0.257230 -0.261310 -0.264190 -0.262590 -0.262640 -0.262070 -0.255520 -0.244070 -0.232940 -0.228890 -0.232800 -0.238210 -0.240300 -0.236810 -0.228510 -0.222630 -0.222840 -0.223790 -0.223170 -0.223320 -0.222010 -0.215970 -0.208140 -0.202980 -0.200030 -0.196290 -0.191850 -0.188750 -0.185240 -0.178340 -0.170840 -0.167060 -0.166900 -0.166110 -0.158470 -0.147060 -0.144690 -0.149480 -0.146220 -0.135870 -0.128690 -0.120280 -0.106560 -0.098971 -0.100400 -0.097016 -0.088720 -0.087003 -0.087138 -0.082899 -0.079540 -0.073960 -0.061956 -0.052015 -0.046358 -0.038579 -0.030203 -0.023114 -0.011467  0.003099  0.009104  0.008164  0.015073  0.030281  0.041300  0.045853  0.049234  0.053002  0.058756  0.068623  0.080138  0.091102  0.103000  0.114340  0.124390  0.138020  0.153530  0.163380  0.168280  0.172090  0.175300  0.180210  0.188210  0.198040  0.212130  0.231970  0.247960  0.252130  0.256080  0.270350  0.283770  0.290400  0.302710  0.319390  0.325350  0.327920  0.344100  0.363440  0.372000  0.379350  0.387260  0.387080  0.389690  0.403040  0.415740  0.424510  0.432280  0.438420  0.448970  0.465340  0.480720  0.494570  0.505770  0.512830  0.520980  0.528760  0.531760  0.537720  0.550760  0.563000  0.571570  0.579570  0.586760  0.594450  0.607420  0.623720  0.632790  0.631240  0.631230  0.641580  0.653320  0.657670  0.659640  0.664740  0.674050  0.687690  0.698760  0.702450  0.705470  0.710200  0.715800  0.725870  0.732950  0.731540  0.734900  0.744200  0.747800  0.751510  0.761210  0.769050  0.773690  0.778290  0.783890  0.794500  0.806630  0.811200  0.810830  0.812270  0.815200  0.818520  0.823650  0.833210  0.845780  0.851830  0.847790  0.842820  0.840420  0.838610  0.842320  0.852160  0.862730  0.873160  0.880240  0.882880  0.887600  0.891400  0.890080  0.892490  0.897070  0.893210  0.888380  0.891650  0.895460  0.896770  0.903290  0.914620  0.921280  0.919220  0.914110  0.912670  0.913970  0.913520  0.912450  0.914130  0.917450  0.919480  0.919510  0.921640  0.929450  0.936990  0.940130  0.942990  0.941500  0.932580  0.929660  0.937490  0.945180  0.948520  0.947300  0.942480  0.941170  0.941930  0.937810  0.932830  0.930460  0.929410  0.932700  0.936480  0.932580  0.926540  0.924880  0.921480  0.912100  0.900730  0.892270  0.888240  0.884670  0.880200  0.877880  0.872630  0.860630  0.850580  0.844680  0.836720  0.830040  0.828730  0.828660  0.827130  0.821540  0.809770  0.799000  0.793960  0.786740  0.774470  0.765030  0.757950  0.745560  0.729200  0.713870  0.700740  0.691200  0.683740  0.675710  0.668910  0.661640  0.650670  0.639680  0.628690  0.613800  0.599460  0.588500  0.575170  0.559120  0.547550  0.542900  0.538610  0.527240  0.511030  0.497600  0.486540  0.474710  0.463970  0.452810  0.440140  0.430360  0.419410  0.402850  0.390730  0.384090  0.370890  0.355570  0.348740  0.343860  0.332720  0.317370  0.303470  0.294880  0.287710  0.276930  0.265320  0.254140  0.243930  0.239630  0.236260  0.227690  0.222530  0.219410  0.208320  0.198750  0.195990  0.189570  0.181540  0.174440  0.162740  0.153120  0.146260  0.131810  0.118350  0.116140  0.112320  0.100360  0.093534  0.094788  0.090656  0.078492  0.066742  0.055024  0.043662  0.040792  0.042762  0.038158  0.029177  0.024461  0.025221  0.028914  0.031514  0.026862  0.015384  0.005206 -0.001788 -0.009572 -0.016272 -0.019428 -0.020396 -0.019013 -0.019136 -0.028172 -0.041810 -0.047928 -0.044796 -0.042065 -0.047091 -0.055622 -0.061589 -0.069580 -0.079601 -0.081764 -0.081521 -0.089026 -0.094523 -0.093274 -0.093459 -0.092053 -0.087720 -0.087097 -0.088014 -0.092549 -0.104860 -0.111290 -0.104990 -0.099158 -0.099815 -0.104160 -0.111720 -0.118450 -0.121360 -0.124660 -0.128860 -0.127350 -0.119570 -0.114350 -0.115710 -0.117130 -0.113960 -0.110200 -0.109710 -0.110600 -0.110160 -0.109610 -0.111630 -0.115750 -0.117240 -0.113740 -0.110150 -0.110130 -0.109430 -0.104490 -0.097056 -0.090011 -0.087507 -0.091076 -0.094564 -0.093125 -0.089167 -0.086769 -0.087535 -0.088369 -0.086460 -0.087624 -0.095340 -0.101140 -0.098636 -0.088795 -0.073098 -0.058866 -0.056491 -0.063965 -0.070714 -0.071757 -0.068712 
Shapelet   8   0.191760  0.199030  0.217770  0.204700  0.162720  0.143050  0.159420  0.181860  0.192790  0.193300  0.187800  0.195050  0.227920  0.259910  0.262170  0.245230  0.229020  0.212020  0.194320  0.195040  0.223010  0.257030  0.271670  0.259370  0.226860  0.188910  0.164070  0.163830  0.179770  0.194550  0.210110  0.230920  0.240480  0.239360  0.242770  0.236660  0.218800  0.213840  0.215590  0.214260  0.226860  0.242250  0.240630  0.245700  0.271080  0.287570  0.286330  0.289920  0.290990  0.272860  0.264980  0.283620  0.294450  0.284120  0.267900  0.249670  0.238050  0.239160  0.240600  0.239820  0.240160  0.237880  0.242960  0.260590  0.270130  0.258840  0.241570  0.244940  0.273720  0.289420  0.273250  0.263510  0.265420  0.249430  0.240560  0.260230  0.271140  0.258510  0.242130  0.234200  0.246030  0.263320  0.254200  0.235010  0.237990  0.245660  0.233770  0.217090  0.214840  0.213750  0.195020  0.181130  0.203560  0.237120  0.243770  0.238600  0.239770  0.238650  0.243610  0.261850  0.270130  0.257900  0.241620  0.226830  0.208390  0.192750  0.188580  0.195640  0.213360  0.234680  0.237780  0.218120  0.198640  0.187040  0.169610  0.148690  0.145170  0.165290  0.186160  0.194760  0.213420  0.239530  0.230140  0.193800  0.183310  0.199670  0.214840  0.230420  0.244790  0.240790  0.223180  0.213300  0.215520  0.217950  0.211500  0.192810  0.171540  0.170560  0.190650  0.210710  0.214620  0.192700  0.178190  0.212720  0.240050  0.209570  0.185880  0.191630  0.178030  0.163570  0.167520  0.154770  0.137250  0.143280  0.147650  0.139010  0.143340  0.161440  0.169190  0.167530  0.179750  0.203640  0.215800  0.215680  0.216580  0.215720  0.213150  0.222910  0.240160  0.243410  0.236570  0.240130  0.245180  0.226230  0.190510  0.168620  0.172540  0.192550  0.211410  0.217520  0.215540  0.203110  0.176170  0.168200  0.199300  0.230150  0.240350  0.254390  0.276220  0.288330  0.277140  0.242620  0.214700  0.213370  0.217050  0.215720  0.216240  0.214340  0.216270  0.219620  0.204690  0.191580  0.206420  0.226880  0.241460  0.259650  0.261490  0.236900  0.217220  0.217400  0.214640  0.197950  0.186370  0.193260  0.210170  0.220390  0.214530  0.211100  0.228790  0.239540  0.222860  0.209960  0.217500  0.233080  0.252540  0.264760  0.264170  0.265410  0.262570  0.245510  0.235380  0.240980  0.241860  0.236800  0.241110  0.243320  0.228190  0.214560  0.214550  0.220760  0.246090  0.282180  0.284920  0.259290  0.242510  0.236560  0.242250  0.259850  0.266840  0.263470  0.263790  0.263490  0.264540  0.265370  0.259940  0.267460  0.286790  0.274490  0.230760  0.212680  0.229900  0.241230  0.255520  0.286910  0.281820  0.244460  0.247450  0.265060  0.246100  0.233880  0.240470  0.223540  0.196830  0.193100  0.209870  0.232400  0.238890  0.221080  0.206700  0.222760  0.256650  0.281200  0.287870  0.270880  0.243610  0.242230  0.244160  0.218390  0.224030  0.277590  0.308090  0.314030  0.316070  0.279010  0.227960  0.215010  0.217680  0.214860  0.215060  0.223220  0.248890  0.265330  0.248270  0.240610  0.242650  0.219410  0.224430  0.278880  0.310510  0.312370  0.313340  0.299140  0.286150  0.288530  0.276640  0.260630  0.263470  0.256160  0.232700  0.236090  0.261280  0.259060  0.240990  0.241450  0.234540  0.216500  0.226210  0.243800  0.240340  0.248270  0.271450  0.267360  0.234110  0.209770  0.213750  0.231840  0.242010  0.240380  0.237540  0.243610  0.261510  0.282280  0.286810  0.266870  0.243310  0.243280  0.262260  0.269700  0.259390  0.262420  0.282400  0.287650  0.287300  0.303880  0.313960  0.312120  0.316090  0.301810  0.265900  0.265850  0.306000  0.313860  0.277620  0.264060  0.286580  0.306580  0.313020  0.290410  0.247210  0.248480  0.286640  0.305300  0.319430  0.313790  0.251180  0.197840  0.191690  0.179870  0.158270  0.143860  0.125690  0.118330  0.119430  0.103250  0.095273  0.118820  0.140910  0.142590  0.143370  0.146490  0.136370  0.119320  0.116130  0.122010  0.119260  0.115540  0.127220  0.143520  0.146300  0.140790  0.143570  0.159290  0.173480  0.167140  0.147870  0.146650  0.168240  0.186870  0.198080  0.216480  0.225030  0.194390  0.141340  0.105400  0.082598  0.044804  0.007465 -0.006737 -0.027188 -0.062694 -0.080621 -0.099699 -0.136280 -0.146580 -0.147280 -0.192880 -0.240810 -0.241510 -0.235500 -0.259100 -0.293090 -0.312070 -0.314900 -0.314900 -0.315380 -0.312740 -0.315640 -0.331490 -0.344440 -0.337680 -0.333140 -0.351990 -0.362610 -0.346170 -0.329850 -0.311830 -0.278210 -0.253890 -0.240070 -0.207790 -0.181120 -0.198020 -0.220630 -0.200320 -0.166630 -0.151490 -0.129250 -0.092610 -0.060528 -0.027830  0.002406  0.019148  0.027199  0.021141  0.016234  0.049961  0.102740  0.135880  0.156960  0.168280  0.166160  0.181840  0.222720  0.242080  0.232480  0.245050  0.280630  0.292400  0.287910  0.290110  0.272250  0.233020  0.215440  0.218130  0.215230  0.228840  0.269840  0.287840  0.269140  0.260890  0.263270  0.246010  0.232710  0.242610  0.243940  0.225780  0.214800  0.215680  0.214310  0.217920  0.235200  0.245570  0.237310  0.236320  0.253950  0.265000  0.263950  0.265410  0.262520  0.261140  0.278660  0.287270  0.268680  0.258550  0.266110  0.266020  0.253960  0.233990  0.216750  0.223220  0.246170  0.262180  0.266090  0.262880  0.262890  0.267600  0.259920  0.242410  0.237240  0.240460  0.239490  0.248650  0.269540  0.268130  0.245220  0.241420  0.242740  0.220910  0.221290  0.258140  0.272110  0.260590  0.262510  0.266970  0.262430  0.263230  0.265850  0.262750  0.263260  0.266430  0.261780  0.262150  0.278810  0.289890  0.288270  0.289070  0.286260  0.286350  0.304560  0.310560  0.290790  0.282550  0.291290  0.289630  0.274420  0.259620  0.262000  0.281410  0.286250  0.266470  0.257200  0.268910  0.266190  0.243760  0.246150  0.283970  0.302500  0.272170  0.240870  0.249170  0.272800  0.287180  0.292380  0.281660  0.264910  0.262370  0.264130  0.263800  0.267020  0.257540  0.240390  0.249620  0.271700  0.265580  0.243180  0.244320  0.263210  0.258340  0.222100  0.192490  0.189180  0.192510  0.191670  0.192050  0.190490  0.191320  0.205150  0.224310  0.239430  0.244730  0.231940  0.216040  0.214880  0.215090  0.215570  0.230560  0.244840  0.240140  0.224720  0.207220  0.191790  0.188500  0.194780  0.191730  0.176830  0.155630  0.119320  0.101680  0.153330  0.215940  0.209570  0.176750  0.167500  0.165590  0.174220  0.191870  0.194020  0.190420  0.191660  0.190820  0.193940  0.191290  0.173530  0.169140  0.192830  0.225320  0.258700  0.289130  0.295180  0.280790  0.289560  0.326230  0.338310  0.310130  0.266720  0.197710  0.087388 -0.041364 -0.163430 -0.274180 -0.395720 -0.545080 -0.686170 -0.808480 -0.958810 -1.123400 -1.264900 -1.420600 -1.610600 -1.814000 -2.042300 -2.292200 -2.544900 -2.814700 -3.091400 -3.346900 -3.601300 -3.863600 -4.105700 -4.326200 -4.533800 -4.724100 -4.918700 -5.141900 -5.369500 -5.564600 -5.739500 -5.941000 -6.180400 -6.423600 -6.662000 -6.905200 -7.117000 -7.265900 -7.359600 -7.377100 -7.314100 -7.214900 -7.061500 -6.821700 -6.549600 -6.272900 -5.954500 -5.595700 -5.217800 -4.829600 -4.458300 -4.113000 -3.762200 -3.380600 -2.960000 -2.508900 -2.060500 -1.633800 -1.216900 
Shapelet  11  -3.983700 -4.443500 -4.797300 -4.974100 -4.726500 -3.895300 -2.816500 -1.719900 -0.534990  0.791450  2.011800  2.913700  3.780300  4.629300  5.283600  5.796500  6.486300  7.229100  7.883400  8.590900  9.457500 10.200000 10.536000 10.483000 10.147000  9.705100  9.156800 


; cmd = /home/grad00/soren885/capstone/ShapeletResearch/Execs/FastShapelet /home/grad00/soren885/capstone/Shapelet_Datasets/UCR_Master/CinC_ECG_torso_TRAIN 4 40 820 1 2 10 manhattan 1 0 10 ./replications/CinC_ECG_torso/CinC_ECG_torso_manhattan_unnormed_CID_REP08_tree.txt ./replications/CinC_ECG_torso/CinC_ECG_torso_manhattan_unnormed_CID_REP08_time.txt
; time =>  1167.700  17.652  86.857   6.351 1049.247 
; command = /home/grad00/soren885/capstone/ShapeletResearch/Execs/Classify /home/grad00/soren885/capstone/Shapelet_Datasets/UCR_Master/CinC_ECG_torso_TEST 4 1380 manhattan 1 0 ./replications/CinC_ECG_torso/CinC_ECG_torso_manhattan_unnormed_CID_REP08_tree.txt ./replications/CinC_ECG_torso/CinC_ECG_torso_manhattan_unnormed_CID_REP08_acc.txt
; accuracy= 68.478   Correct:945 , Wrong: 435


;   == Confusion Matrix ==
;   real |   3    2    4    1 
;   -----+------------------------
;   p  3 | 181   74    4   63 
;   p  2 | 119  237   15   35 
;   p  4 |  17   25  315   40 
;   p  1 |  26    6   11  212 

