;Shapelet Tree 

;random seed:1503373609, rand()=1227887606, rand()=126808938
;command = /home/grad00/soren885/capstone/ShapeletResearch/Execs/FastShapelet /home/grad00/soren885/capstone/Shapelet_Datasets/UCR_Master/CinC_ECG_torso_TRAIN 4 40 820 1 2 10 manhattan 1 0 10 ./replications/CinC_ECG_torso/CinC_ECG_torso_manhattan_unnormed_CID_REP06_tree.txt ./replications/CinC_ECG_torso/CinC_ECG_torso_manhattan_unnormed_CID_REP06_time.txt 

;Local Class:   0  1  2  3 
;Real  Class:   1  3  4  2 

;Node ID class   obj  pos  len  dist_th 
TreeSize: 12 
NonL  1    --     31   85  727  766.3334 ==>   5  12   0  13  /   0   0  10   0 
NonL  2    --      0  284  335  189.9037 ==>   5   0   0   0  /   0  12   0  13 
Leaf  3     4    
Leaf  4     1    
NonL  5    --      8  1018  385  119.9444 ==>   0   1   0  12  /   0  11   0   1 
Leaf 10     2    
Leaf 11     3    

;Shapelet id   <data>
Shapelet   1  -0.459680 -0.495330 -0.570010 -0.612540 -0.568290 -0.535040 -0.553060 -0.554620 -0.544210 -0.550790 -0.534010 -0.482910 -0.455160 -0.475660 -0.507420 -0.518490 -0.499180 -0.462430 -0.459980 -0.504490 -0.532530 -0.512040 -0.469220 -0.432260 -0.426660 -0.448810 -0.469330 -0.492980 -0.517620 -0.500650 -0.443620 -0.398840 -0.396830 -0.434820 -0.478770 -0.501530 -0.524630 -0.548380 -0.539410 -0.513190 -0.493320 -0.468820 -0.455120 -0.457630 -0.441430 -0.423370 -0.445600 -0.481270 -0.484560 -0.461620 -0.448540 -0.459690 -0.460950 -0.434560 -0.427020 -0.451690 -0.451440 -0.414160 -0.392570 -0.408480 -0.426830 -0.404010 -0.362280 -0.371130 -0.416970 -0.441320 -0.464200 -0.487450 -0.471020 -0.454790 -0.458610 -0.427080 -0.384710 -0.388710 -0.412650 -0.428620 -0.428850 -0.393540 -0.353430 -0.357830 -0.374440 -0.351180 -0.329110 -0.361940 -0.402210 -0.397650 -0.373870 -0.358730 -0.360360 -0.370100 -0.352940 -0.330810 -0.349340 -0.360860 -0.334520 -0.336020 -0.376860 -0.394790 -0.376460 -0.357720 -0.360710 -0.368800 -0.354310 -0.332660 -0.330640 -0.327450 -0.303650 -0.279220 -0.261940 -0.240050 -0.228650 -0.246630 -0.267590 -0.268770 -0.269970 -0.269940 -0.250010 -0.233330 -0.236750 -0.238830 -0.236790 -0.237510 -0.235240 -0.242820 -0.266590 -0.276880 -0.258810 -0.238350 -0.236300 -0.234260 -0.208970 -0.179090 -0.179490 -0.204430 -0.214560 -0.195990 -0.175940 -0.158580 -0.133030 -0.141220 -0.190680 -0.203560 -0.176090 -0.171270 -0.174560 -0.174330 -0.197730 -0.199370 -0.146260 -0.107240 -0.128820 -0.173760 -0.172830 -0.111690 -0.080738 -0.122000 -0.150340 -0.143700 -0.159510 -0.186450 -0.205790 -0.232440 -0.227380 -0.175490 -0.157500 -0.197060 -0.206320 -0.160510 -0.143460 -0.174990 -0.170240 -0.112200 -0.081127 -0.085820 -0.067975 -0.049932 -0.070990 -0.080138 -0.049126 -0.023039 -0.016524 -0.018885 -0.037546 -0.062603 -0.081792 -0.103100 -0.118720 -0.111700 -0.089494 -0.076497 -0.081552 -0.084367 -0.076990 -0.081830 -0.088919 -0.059940 -0.016858 -0.011443 -0.025594 -0.017595 -0.011311 -0.034167 -0.050034 -0.046496 -0.062700 -0.081397 -0.063084 -0.034354 -0.017532 -0.012998 -0.033076 -0.050368 -0.048201 -0.056425 -0.046733  0.000148  0.011034 -0.021674 -0.025949 -0.010142 -0.021166 -0.044462 -0.053451 -0.048713 -0.029566 -0.001090  0.013138  0.012040  0.015438  0.010690 -0.011921 -0.022682 -0.018165 -0.019138 -0.010938  0.016964  0.040091  0.045637  0.043544  0.043243  0.044728  0.043489  0.042801  0.046245  0.042025  0.021398 -0.003934 -0.020634 -0.022964  0.001014  0.054097  0.100580  0.100800  0.069064  0.046521  0.042544  0.044076  0.044125  0.043154  0.044168  0.044493  0.042317  0.044712  0.045596  0.039108  0.047773  0.071536  0.069129  0.036214  0.013351  0.021580  0.050887  0.073946  0.065592  0.037338  0.015876  0.008939  0.014208  0.014779  0.006992  0.016235  0.018588 -0.011716 -0.014101  0.011788 -0.003562 -0.017528  0.007882  0.012717  0.018414  0.064925  0.086611  0.071022  0.072366  0.080227  0.071195  0.050031  0.022314  0.013787  0.036994  0.065002  0.075431  0.053239  0.004764 -0.022240 -0.019320 -0.020553 -0.014571  0.008252  0.027062  0.053073  0.075110  0.060243  0.038658  0.018890 -0.017098 -0.006350  0.063519  0.103550  0.106660  0.107740  0.089974  0.071630  0.074378  0.074821  0.076818  0.077356  0.054590  0.045461  0.071121  0.082489  0.071192  0.073440  0.081075  0.067871  0.045952  0.040020  0.045737  0.044573  0.041109  0.046368  0.045583  0.024693  0.011546  0.038566  0.074171  0.067100  0.044473  0.058044  0.081478  0.076578  0.070500  0.076554  0.049778 -0.016974 -0.060514 -0.051934 -0.040790 -0.060401 -0.080427 -0.080564 -0.085943 -0.110250 -0.122400 -0.100310 -0.081163 -0.095842 -0.126910 -0.171530 -0.196040 -0.146460 -0.111040 -0.170720 -0.216900 -0.206710 -0.209240 -0.194480 -0.174250 -0.216900 -0.231200 -0.148490 -0.068613 -0.043795 -0.049178 -0.072727 -0.079253 -0.051089 -0.024211 -0.017101 -0.018570 -0.019718 -0.016705 -0.018416 -0.037223 -0.057449 -0.050244 -0.024673 -0.021865 -0.049601 -0.074577 -0.087098 -0.112330 -0.141030 -0.136180 -0.112360 -0.107710 -0.119360 -0.144030 -0.186320 -0.221290 -0.237690 -0.256720 -0.280940 -0.300410 -0.321420 -0.337950 -0.330680 -0.308630 -0.291330 -0.267640 -0.240570 -0.244850 -0.269490 -0.273010 -0.265800 -0.268800 -0.255910 -0.205820 -0.140300 -0.093073 -0.071458 -0.047634  0.009438  0.088143  0.139490  0.142220  0.137470  0.173120  0.238420  0.284090  0.294240  0.308320  0.358920  0.424180  0.469490  0.495120  0.514170  0.517950  0.500190  0.479700  0.460450  0.433160  0.418630  0.421070  0.408010  0.385530  0.367440  0.330930  0.290140  0.270400  0.241610  0.193970  0.151100  0.118090  0.106210  0.109220  0.093326  0.073605  0.074901  0.067052  0.039776  0.019177 -0.006753 -0.058725 -0.104990 -0.115870 -0.112090 -0.111950 -0.117400 -0.152470 -0.218890 -0.253970 -0.232590 -0.228110 -0.256360 -0.226200 -0.155430 -0.142890 -0.138880 -0.091333 -0.085345 -0.115940 -0.096034 -0.049199 -0.011013  0.032180  0.061888  0.079927  0.121380  0.174150  0.203610  0.203170  0.194370  0.204220  0.226780  0.235210  0.230260  0.230180  0.233210  0.230650  0.230990  0.224830  0.190280  0.165650  0.197320  0.237420  0.235140  0.225770  0.233410  0.233080  0.228360  0.231350  0.210340  0.169930  0.177020  0.223540  0.237800  0.229950  0.231490  0.227500  0.236730  0.260840  0.250990  0.226660  0.229250  0.233620  0.230970  0.232280  0.218770  0.192400  0.171880  0.162300  0.174870  0.197330  0.202770  0.197680  0.176020  0.139250  0.146940  0.193810  0.206940  0.198200  0.200120  0.196480  0.206190  0.229390  0.229970  0.237030  0.261060  0.250610  0.225080  0.229180  0.236800  0.225840  0.204130  0.177660  0.169890  0.195030  0.223890  0.231870  0.231180  0.232270  0.229880  0.230500  0.235950  0.223680  0.201300  0.209850  0.243950  0.262100  0.261830  0.263610  0.263240  0.257580  0.272370  0.319390  0.357880  0.344050  0.297930  0.279570  0.310320  0.353420  0.365760  0.346130  0.326090  0.322900  0.325780  0.325240  0.324900  0.324330  0.324650  0.340650  0.364910  0.358380  0.328840  0.331870  0.355800  0.343110  0.315290  0.323830  0.336850  0.305890  0.263980  0.256880  0.265360  0.262900  0.260690  0.263470  0.262740  0.261800  0.262680  0.262670  0.262840  0.261330  0.262490  0.277640  0.312320  0.355720  0.370000  0.333710  0.294220  0.291400  0.289120  0.262900  0.239230  0.221360  0.200190  0.206730  0.268220  0.356920  0.412400  0.415660  0.419240  0.457770  0.503530  0.544810  0.588160  0.623730  0.670580  0.738940  0.769090  0.729780  0.679770  0.663910  0.669440  0.688130  0.705510  0.665490  0.558970  0.470880  0.450300  0.465630  0.506730  0.579580  0.646500  0.691290  0.769860  0.926530  1.118000  1.271800  1.392000  1.531000  1.679400  1.787700  1.871900  1.994200  2.175400  2.378100  2.559200  2.721600  2.898700  3.094600  3.298100  3.520000  3.755700  3.983600  4.204600  4.408200  4.560800  4.650000  4.708400  4.832900  5.075200  5.319300  5.483400  5.644900  5.813400  5.934600  6.074900  6.296100  6.548000  6.780500  6.975000  7.123100  7.243700  7.335700  7.347100  7.257200  7.115500  6.955100  6.736100  6.426300  6.021600  5.486200  4.795500  4.034300  3.360500  2.833900  2.343200  1.770300  1.104700  0.359200 -0.456050 -1.254900 -1.896700 -2.328100 -2.640500 
Shapelet   2   0.013272 -0.004413  0.013272  0.066330  0.137070  0.172440  0.190130  0.172440  0.190130  0.172440  0.154760  0.154760  0.137070  0.066330  0.048644  0.084016  0.066330  0.030958  0.013272  0.013272  0.048644  0.101700  0.101700  0.137070  0.172440  0.084016  0.030958  0.066330  0.154760  0.225500  0.225500  0.225500  0.225500  0.190130  0.225500  0.260870  0.260870  0.225500  0.154760  0.119390  0.137070  0.154760  0.172440  0.172440  0.190130  0.190130  0.190130  0.137070  0.066330  0.119390  0.137070  0.084016  0.066330  0.048644  0.013272  0.013272  0.013272  0.030958  0.066330  0.048644 -0.004413 -0.004413  0.101700  0.243190  0.278560  0.260870  0.278560  0.260870  0.225500  0.207820  0.225500  0.243190  0.243190  0.225500  0.172440  0.190130  0.207820  0.190130  0.137070  0.084016  0.030958  0.013272 -0.022099 -0.022099  0.030958  0.030958  0.013272  0.048644  0.119390  0.190130  0.207820  0.190130  0.190130  0.137070  0.119390  0.101700  0.048644  0.048644  0.048644  0.048644  0.030958  0.030958  0.030958  0.048644  0.119390  0.154760  0.190130  0.190130  0.207820  0.190130  0.190130  0.172440  0.137070  0.084016  0.084016  0.101700  0.119390  0.119390  0.154760  0.190130  0.207820  0.190130  0.172440  0.225500  0.278560  0.243190  0.207820  0.172440  0.137070  0.137070  0.066330 -0.004413 -0.057471 -0.110530 -0.181270 -0.216640 -0.287390 -0.340440 -0.411190 -0.411190 -0.375810 -0.358130 -0.393500 -0.375810 -0.340440 -0.358130 -0.358130 -0.287390 -0.216640 -0.216640 -0.252010 -0.216640 -0.163590 -0.163590 -0.163590 -0.128210 -0.075157 -0.057471 -0.075157 -0.092842 -0.075157 -0.004413  0.030958  0.119390  0.154760  0.119390  0.137070  0.154760  0.207820  0.207820  0.172440  0.137070  0.066330 -0.022099 -0.110530 -0.163590 -0.198960 -0.252010 -0.340440 -0.375810 -0.393500 -0.411190 -0.375810 -0.340440 -0.358130 -0.375810 -0.375810 -0.411190 -0.411190 -0.375810 -0.305070 -0.198960 -0.110530 -0.057471 -0.092842 -0.110530 -0.092842 -0.022099  0.030958  0.084016  0.066330  0.013272 -0.004413 -0.110530 -0.198960 -0.234330 -0.216640 -0.216640 -0.216640 -0.234330 -0.181270 -0.128210 -0.075157 -0.075157 -0.039785  0.013272 -0.004413 -0.004413  0.013272  0.013272  0.013272  0.048644  0.048644  0.013272 -0.022099 -0.057471 -0.057471 -0.057471 -0.039785  0.013272  0.013272  0.066330  0.084016  0.048644  0.066330  0.101700  0.084016  0.066330  0.013272  0.013272  0.030958  0.066330  0.137070  0.225500  0.278560  0.225500  0.172440  0.137070  0.172440  0.243190  0.260870  0.225500  0.225500  0.260870  0.243190  0.207820  0.207820  0.225500  0.225500  0.190130  0.137070  0.048644  0.084016  0.119390  0.137070  0.172440  0.225500  0.225500  0.207820  0.243190  0.260870  0.278560  0.243190  0.190130  0.154760  0.137070  0.190130  0.243190  0.260870  0.225500  0.172440  0.154760  0.190130  0.190130  0.190130  0.190130  0.207820  0.172440  0.154760  0.137070  0.137070  0.172440  0.207820  0.172440  0.084016 -0.004413 -0.092842 -0.269700 -0.534990 -0.747220 -0.994820 -1.242400 -1.419300 -1.525400 -1.666900 -1.896800 -2.126700 -2.392000 -2.639600 -2.851800 -2.975600 -3.028700 -3.081700 -3.064100 -2.957900 -2.745700 -2.586500 -2.515800 -2.515800 -2.604200 -2.781100 -2.869500 -2.851800 -2.869500 -2.975600 -3.240900 -3.576900 -3.983700 -4.443500 -4.797300 -4.974100 -4.726500 -3.895300 -2.816500 -1.719900 
Shapelet   5   0.358930  0.360300  0.360320  0.361850  0.357060  0.344020  0.335580  0.340040  0.351590  0.362640  0.363530  0.352060  0.340720  0.339380  0.339190  0.327220  0.314260  0.317960  0.333280  0.339880  0.328420  0.314860  0.317240  0.331450  0.340470  0.339950  0.340670  0.341070  0.336760  0.340390  0.354460  0.359370  0.346160  0.330910  0.320680  0.314750  0.323850  0.338750  0.334860  0.320940  0.325070  0.343380  0.355430  0.365520  0.378360  0.382840  0.379890  0.379610  0.378520  0.365230  0.346820  0.340210  0.341820  0.336840  0.323670  0.316520  0.320090  0.322140  0.318890  0.318390  0.322260  0.320670  0.316040  0.322080  0.325520  0.309500  0.298870  0.318650  0.342280  0.342730  0.339730  0.341270  0.330260  0.320060  0.330520  0.343410  0.341490  0.339170  0.340210  0.330420  0.315430  0.304070  0.291810  0.280520  0.277840  0.280480  0.280190  0.280210  0.280510  0.271790  0.257680  0.254550  0.267430  0.279240  0.279210  0.280800  0.292670  0.302890  0.301040  0.302030  0.321330  0.340190  0.335830  0.321890  0.320960  0.320390  0.306680  0.299690  0.302000  0.292000  0.280180  0.289750  0.300580  0.288210  0.274810  0.278840  0.282930  0.279440  0.278460  0.281090  0.280890  0.274000  0.258570  0.242680  0.240850  0.242520  0.226280  0.199720  0.183440  0.178920  0.178340  0.185530  0.199300  0.204300  0.197890  0.196020  0.207450  0.219250  0.220660  0.220090  0.221370  0.215630  0.202270  0.195130  0.201080  0.212520  0.225720  0.238200  0.237950  0.218930  0.200060  0.203930  0.218280  0.215520  0.200280  0.196290  0.200320  0.189090  0.166420  0.159310  0.172000  0.179890  0.167880  0.153930  0.157970  0.167130  0.156800  0.130650  0.115290  0.118240  0.122560  0.119460  0.117550  0.121470  0.121390  0.116000  0.119970  0.133810  0.140560  0.139400  0.142050  0.140430  0.126790  0.119390  0.121550  0.113170  0.100490  0.100740  0.098082  0.083787  0.080163  0.081703  0.061970  0.037938  0.036071  0.040647  0.039053  0.046674  0.060127  0.061238  0.060939  0.074341  0.086172  0.080115  0.065864  0.058662  0.058996  0.060395  0.059873  0.058658  0.060703  0.070949  0.092359  0.117010  0.122190  0.094046  0.054298  0.032524  0.022685  0.007414 -0.000201  0.011444  0.022250  0.020579  0.019815  0.019626  0.008562 -0.002735 -0.001531 -0.002362 -0.019088 -0.037668 -0.038962 -0.026492 -0.013313 -0.001741  0.005588 -0.003531 -0.028121 -0.049398 -0.059284 -0.063409 -0.059439 -0.046472 -0.038556 -0.040291 -0.035594 -0.019717 -0.013111 -0.026527 -0.039608 -0.038324 -0.040176 -0.054618 -0.059589 -0.046024 -0.036617 -0.040016 -0.041190 -0.041043 -0.052118 -0.069181 -0.079611 -0.082416 -0.079685 -0.069503 -0.050962 -0.026202 -0.004876 -0.000761 -0.012659 -0.023150 -0.021983 -0.017929 -0.020436 -0.022877 -0.018709 -0.018071 -0.024841 -0.021228 -0.004767 -0.001902 -0.015982 -0.021297 -0.019760 -0.031402 -0.040177 -0.019160  0.016986  0.038015  0.041445  0.039462  0.038167  0.042778  0.055930  0.066060  0.059137  0.044003  0.039831  0.041443  0.031667  0.019774  0.026909  0.043680  0.044219  0.033668  0.038218  0.054986  0.059145  0.056028  0.068019  0.079978  0.069450  0.059716  0.071844  0.082518  0.079827  0.085856  0.100680  0.103180  0.098128  0.098893  0.100650  0.099813  0.100060  0.099138  0.098104  0.105980  0.119200  0.123390  0.118360  0.116990  0.125550  0.138210  0.150370  0.161560  0.164100  0.153160  0.141000  0.139200  0.139670  0.137420  0.144260  0.157590  0.161110  0.160030  0.169580  0.185030  0.196340  0.207880  0.219790  0.223150  0.217740  0.206150  0.190340  0.180250  0.180670  0.178420  0.165740  0.156190  0.158620  0.168560  0.181660  0.185780  0.171790  0.159540  0.168510  0.180290  0.178790  0.183610  0.197820  0.196300  0.179860  0.167760  0.154150  0.128680  0.111440  0.118830  0.133960  0.141030  0.150760  0.174430  0.198040  0.203920  0.199080 


; cmd = /home/grad00/soren885/capstone/ShapeletResearch/Execs/FastShapelet /home/grad00/soren885/capstone/Shapelet_Datasets/UCR_Master/CinC_ECG_torso_TRAIN 4 40 820 1 2 10 manhattan 1 0 10 ./replications/CinC_ECG_torso/CinC_ECG_torso_manhattan_unnormed_CID_REP06_tree.txt ./replications/CinC_ECG_torso/CinC_ECG_torso_manhattan_unnormed_CID_REP06_time.txt
; time =>  1066.608  16.844 112.492   7.069 922.663 
; command = /home/grad00/soren885/capstone/ShapeletResearch/Execs/Classify /home/grad00/soren885/capstone/Shapelet_Datasets/UCR_Master/CinC_ECG_torso_TEST 4 1380 manhattan 1 0 ./replications/CinC_ECG_torso/CinC_ECG_torso_manhattan_unnormed_CID_REP06_tree.txt ./replications/CinC_ECG_torso/CinC_ECG_torso_manhattan_unnormed_CID_REP06_acc.txt
; accuracy= 68.261   Correct:942 , Wrong: 438


;   == Confusion Matrix ==
;   real |   3    2    4    1 
;   -----+------------------------
;   p  3 | 205   77   26   96 
;   p  2 |  84  235    6   14 
;   p  4 |  53   24  313   51 
;   p  1 |   1    6    0  189 

