;Shapelet Tree 

;random seed:1503426050, rand()=824344257, rand()=1817100975
;command = /home/grad00/soren885/capstone/ShapeletResearch/Execs/FastShapelet /home/grad00/soren885/capstone/Shapelet_Datasets/UCR_Master/CinC_ECG_torso_TRAIN 4 40 820 1 2 10 euclidean 1 0 10 ./replications/CinC_ECG_torso/CinC_ECG_torso_euclidean_unnormed_CID_REP03_tree.txt ./replications/CinC_ECG_torso/CinC_ECG_torso_euclidean_unnormed_CID_REP03_time.txt 

;Local Class:   0  1  2  3 
;Real  Class:   1  3  4  2 

;Node ID class   obj  pos  len  dist_th 
TreeSize: 8 
NonL  1    --     32    5  725  42.7963 ==>   0  12   0  13  /   5   0  10   0 
NonL  2    --      8  982  391   7.4996 ==>   0   1   0  12  /   0  11   0   1 
NonL  3    --     14  1012  623  17.5540 ==>   5   0   0   0  /   0   0  10   0 
Leaf  4     2    
Leaf  5     3    
Leaf  6     1    
Leaf  7     4    

;Shapelet id   <data>
Shapelet   1   0.211200  0.210450  0.210400  0.209740  0.211530  0.211330  0.207860  0.211190  0.225880  0.242830  0.257850  0.274970  0.315230  0.322890  0.309230  0.291280  0.293310  0.313670  0.333050  0.343000  0.344220  0.334890  0.317750  0.300320  0.287390  0.285220  0.293340  0.292020  0.273010  0.263120  0.278150  0.293210  0.290830  0.286690  0.289140  0.289020  0.290860  0.306960  0.330270  0.341400  0.331370  0.308820  0.291890  0.288210  0.288930  0.294840  0.323470  0.372210  0.410240  0.420500  0.410950  0.390650  0.371540  0.368150  0.369750  0.350540  0.312510  0.277540  0.257320  0.258060  0.277310  0.289060  0.275870  0.259280  0.260080  0.265670  0.263200  0.260720  0.263670  0.264290  0.260720  0.261820  0.274460  0.291450  0.294550  0.283120  0.284850  0.314170  0.343310  0.346600  0.338620  0.339870  0.344010  0.341250  0.338500  0.344900  0.361270  0.375840  0.368380  0.337820  0.308580  0.293010  0.285440  0.288140  0.295590  0.285000  0.264620  0.269320  0.287890  0.280650  0.261340  0.271060  0.305250  0.335700  0.355960  0.368080  0.370330  0.364430  0.348590  0.325210  0.315230  0.329360  0.344490  0.343550  0.339920  0.341450  0.333450  0.307820  0.274860  0.254510  0.260570  0.273050  0.258410  0.235520  0.246330  0.263980  0.241360  0.208470  0.206520  0.210450  0.207410  0.234560  0.290810  0.330160  0.345800  0.361770  0.374370  0.368140  0.350730  0.339690  0.340360  0.339530  0.318730  0.283120  0.260300  0.260030  0.264720  0.263330  0.262050  0.262990  0.262920  0.263060  0.263170  0.261700  0.263110  0.265970  0.258060  0.240500  0.237260  0.262780  0.298930  0.318750  0.317860  0.312020  0.314600  0.328120  0.344920  0.348300  0.326390  0.292890  0.278410  0.292720  0.311660  0.315100  0.314420  0.319180  0.313890  0.296030  0.287870  0.290010  0.280140  0.262480  0.258860  0.264410  0.263320  0.267020  0.288150  0.301100  0.281210  0.260200  0.278730  0.312860  0.320590  0.314550  0.316390  0.309100  0.290930  0.293350  0.318920  0.338040  0.342180  0.342110  0.334650  0.313640  0.293330  0.289430  0.290940  0.280020  0.262950  0.248860  0.230360  0.213030  0.211120  0.211010  0.203810  0.216560  0.251400  0.267710  0.262980  0.272300  0.291510  0.293310  0.286200  0.288000  0.291140  0.288760  0.287800  0.290030  0.290050  0.283050  0.262020  0.228440  0.206550  0.222800  0.265150  0.288950  0.276230  0.261200  0.276350  0.305200  0.315450  0.311290  0.317980  0.335380  0.343830  0.341760  0.341860  0.340600  0.326100  0.309020  0.311320  0.329900  0.341700  0.341480  0.342310  0.343320  0.332240  0.315300  0.310910  0.317130  0.317330  0.312190  0.314710  0.320030  0.311650  0.293470  0.290710  0.311420  0.334280  0.341610  0.340680  0.342840  0.342820  0.330920  0.313840  0.309200  0.321700  0.337720  0.350350  0.368200  0.388630  0.392120  0.375000  0.355700  0.341950  0.326550  0.312210  0.311050  0.323960  0.340030  0.346880  0.338630  0.321810  0.311690  0.314180  0.318140  0.314470  0.312050  0.318820  0.318860  0.295000  0.260980  0.240850  0.235740  0.235560  0.243120  0.262750  0.282640  0.289790  0.288980  0.289820  0.289270  0.286670  0.290540  0.293270  0.279380  0.263490  0.270840  0.292540  0.308350  0.322550  0.338860  0.345150  0.340950  0.339640  0.342540  0.342140  0.340100  0.341480  0.342830  0.340370  0.340040  0.344300  0.341800  0.327200  0.311350  0.296830  0.276890  0.263070  0.272430  0.292350  0.295380  0.279850  0.264550  0.259650  0.263940  0.277810  0.298130  0.312980  0.322600  0.343040  0.366150  0.362610  0.343740  0.347500  0.367470  0.372870  0.364710  0.350840  0.321980  0.290820  0.275330  0.257080  0.224290  0.199480  0.186800  0.162400  0.126120  0.094907  0.065133  0.033417  0.010850  0.000548 -0.001807  0.005789  0.022520  0.038849  0.053947  0.071061  0.082461  0.082431  0.072467  0.054413  0.035334  0.026619  0.028224  0.022617  0.003648 -0.014879 -0.027012 -0.040964 -0.061573 -0.076126 -0.077051 -0.077934 -0.090683 -0.114970 -0.146750 -0.182720 -0.209180 -0.212870 -0.205090 -0.205060 -0.217440 -0.234260 -0.249340 -0.265320 -0.281360 -0.291610 -0.287820 -0.263380 -0.224890 -0.191400 -0.173880 -0.158780 -0.137380 -0.130140 -0.145690 -0.160940 -0.158190 -0.144890 -0.127540 -0.098424 -0.062481 -0.032202 -0.005101  0.028327  0.064110  0.085662  0.099879  0.119720  0.132050  0.121230  0.102170  0.101550  0.112390  0.108170  0.074432  0.014473 -0.049984 -0.101270 -0.146560 -0.203960 -0.268060 -0.307790 -0.309290 -0.291220 -0.274660 -0.259570 -0.243220 -0.228340 -0.198170 -0.138990 -0.077816 -0.042118 -0.016563  0.015767  0.041348  0.052913  0.058418  0.050315  0.031978  0.030053  0.050107  0.070393  0.081569  0.095635  0.117780  0.150030  0.188240  0.211810  0.214090  0.207880  0.192790  0.154890  0.104710  0.068346  0.047825  0.032552  0.018171  0.001887 -0.008145  0.009675  0.058209  0.101410  0.107390  0.088739  0.079899  0.094387  0.117040  0.130830  0.133710  0.131800  0.131190  0.133020  0.132760  0.129810  0.132540  0.146700  0.164710  0.179710  0.194860  0.210390  0.224430  0.243800  0.275280  0.307510  0.316050  0.291190  0.256200  0.251140  0.282860  0.312820  0.323510  0.347550  0.397150  0.430970  0.424420  0.403920  0.393190  0.390850  0.398100  0.415110  0.426410  0.419580  0.403210  0.389200  0.373550  0.359250  0.366520  0.397600  0.425450  0.438940  0.460450  0.494700  0.518480  0.524950  0.524970  0.523470  0.523560  0.534030  0.553190  0.569460  0.582350  0.597850  0.622710  0.657470  0.681760  0.676370  0.658890  0.649900  0.629680  0.592130  0.575440  0.579260  0.565210  0.550390  0.574390  0.608620  0.609900  0.594760  0.580070  0.551200  0.521010  0.517690  0.529390  0.526950  0.517420  0.526190  0.545660  0.548590  0.530630  0.511320  0.498130  0.482980  0.466720  0.451140  0.438940  0.445140  0.474390  0.504940  0.519910  0.532190  0.549130  0.555820  0.549000  0.546160  0.558480  0.574880  0.580100  0.576350  0.574920  0.578570  0.578490  0.567910  0.549670  0.532350  0.520250  0.504900  0.484380  0.472350  0.463240  0.435440  0.400970  0.391000  0.393900  0.388510  0.398780  0.432900  0.452600  0.447210  0.444100  0.445940  0.443480  0.452560  0.470380  0.466910  0.443930  0.426560  0.414670  0.398120  0.387680  0.394030  0.409880  0.423320  0.423660  0.409870  0.394390  0.380480  0.362980  0.358930  0.387100  0.418330  0.413850  0.389030  0.372420  0.363600  0.365140  0.383090  0.393580  0.379040  0.360180  0.345910  0.325620  0.315350  0.330000  0.344270  0.341290  0.351540  0.393090  0.434000  0.447150  0.445530  0.448300  0.446890  0.430900  0.419070  0.433150  0.459870  0.471740  0.477360  0.504240  0.540470  0.552790  0.549820  0.562620  0.577180  0.555460  0.502040  0.455530  0.430670  0.419860  0.427990  0.458530  0.492850  0.499410  0.474180  0.433800  0.378910  0.317670  0.255360  0.192930  0.122150  0.037430 -0.050149 -0.160880 -0.306440 -0.480510 -0.678420 -0.909430 -1.202200 -1.514400 -1.816100 -2.137000 -2.477900 -2.806600 -3.093900 -3.396700 -3.736400 -4.073200 -4.418300 -4.772100 -5.136000 -5.491400 -5.825100 -6.137800 -6.427000 -6.733500 -7.065400 -7.391000 -7.682600 -7.911500 -8.069800 -8.154100 -8.177400 -8.160900 -8.090000 -7.927200 -7.642000 -7.249600 -6.821300 -6.379400 -5.910800 -5.429300 -4.964100 
Shapelet   2   0.458390  0.461240  0.463010  0.453830  0.441480  0.438910  0.439840  0.428690  0.414680  0.417210  0.432160  0.440520  0.439240  0.441840  0.442910  0.426850  0.399950  0.374830  0.353320  0.339990  0.346290  0.359910  0.354510  0.334900  0.321730  0.319510  0.320130  0.319790  0.320060  0.319820  0.320080  0.320250  0.318850  0.320670  0.330600  0.347230  0.358930  0.360300  0.360320  0.361850  0.357060  0.344020  0.335580  0.340040  0.351590  0.362640  0.363530  0.352060  0.340720  0.339380  0.339190  0.327220  0.314260  0.317960  0.333280  0.339880  0.328420  0.314860  0.317240  0.331450  0.340470  0.339950  0.340670  0.341070  0.336760  0.340390  0.354460  0.359370  0.346160  0.330910  0.320680  0.314750  0.323850  0.338750  0.334860  0.320940  0.325070  0.343380  0.355430  0.365520  0.378360  0.382840  0.379890  0.379610  0.378520  0.365230  0.346820  0.340210  0.341820  0.336840  0.323670  0.316520  0.320090  0.322140  0.318890  0.318390  0.322260  0.320670  0.316040  0.322080  0.325520  0.309500  0.298870  0.318650  0.342280  0.342730  0.339730  0.341270  0.330260  0.320060  0.330520  0.343410  0.341490  0.339170  0.340210  0.330420  0.315430  0.304070  0.291810  0.280520  0.277840  0.280480  0.280190  0.280210  0.280510  0.271790  0.257680  0.254550  0.267430  0.279240  0.279210  0.280800  0.292670  0.302890  0.301040  0.302030  0.321330  0.340190  0.335830  0.321890  0.320960  0.320390  0.306680  0.299690  0.302000  0.292000  0.280180  0.289750  0.300580  0.288210  0.274810  0.278840  0.282930  0.279440  0.278460  0.281090  0.280890  0.274000  0.258570  0.242680  0.240850  0.242520  0.226280  0.199720  0.183440  0.178920  0.178340  0.185530  0.199300  0.204300  0.197890  0.196020  0.207450  0.219250  0.220660  0.220090  0.221370  0.215630  0.202270  0.195130  0.201080  0.212520  0.225720  0.238200  0.237950  0.218930  0.200060  0.203930  0.218280  0.215520  0.200280  0.196290  0.200320  0.189090  0.166420  0.159310  0.172000  0.179890  0.167880  0.153930  0.157970  0.167130  0.156800  0.130650  0.115290  0.118240  0.122560  0.119460  0.117550  0.121470  0.121390  0.116000  0.119970  0.133810  0.140560  0.139400  0.142050  0.140430  0.126790  0.119390  0.121550  0.113170  0.100490  0.100740  0.098082  0.083787  0.080163  0.081703  0.061970  0.037938  0.036071  0.040647  0.039053  0.046674  0.060127  0.061238  0.060939  0.074341  0.086172  0.080115  0.065864  0.058662  0.058996  0.060395  0.059873  0.058658  0.060703  0.070949  0.092359  0.117010  0.122190  0.094046  0.054298  0.032524  0.022685  0.007414 -0.000201  0.011444  0.022250  0.020579  0.019815  0.019626  0.008562 -0.002735 -0.001531 -0.002362 -0.019088 -0.037668 -0.038962 -0.026492 -0.013313 -0.001741  0.005588 -0.003531 -0.028121 -0.049398 -0.059284 -0.063409 -0.059439 -0.046472 -0.038556 -0.040291 -0.035594 -0.019717 -0.013111 -0.026527 -0.039608 -0.038324 -0.040176 -0.054618 -0.059589 -0.046024 -0.036617 -0.040016 -0.041190 -0.041043 -0.052118 -0.069181 -0.079611 -0.082416 -0.079685 -0.069503 -0.050962 -0.026202 -0.004876 -0.000761 -0.012659 -0.023150 -0.021983 -0.017929 -0.020436 -0.022877 -0.018709 -0.018071 -0.024841 -0.021228 -0.004767 -0.001902 -0.015982 -0.021297 -0.019760 -0.031402 -0.040177 -0.019160  0.016986  0.038015  0.041445  0.039462  0.038167  0.042778  0.055930  0.066060  0.059137  0.044003  0.039831  0.041443  0.031667  0.019774  0.026909  0.043680  0.044219  0.033668  0.038218  0.054986  0.059145  0.056028  0.068019  0.079978  0.069450  0.059716  0.071844  0.082518  0.079827  0.085856  0.100680  0.103180  0.098128  0.098893  0.100650  0.099813  0.100060  0.099138  0.098104  0.105980  0.119200  0.123390  0.118360  0.116990  0.125550  0.138210  0.150370  0.161560  0.164100  0.153160  0.141000  0.139200  0.139670  0.137420  0.144260  0.157590  0.161110  0.160030  0.169580  0.185030  0.196340  0.207880  0.219790  0.223150  0.217740  0.206150  0.190340 
Shapelet   3   0.125890  0.125890  0.182150  0.182150  0.182150  0.182150  0.182150  0.182150  0.125890  0.097762  0.125890  0.182150  0.182150  0.154020  0.069631  0.041501  0.182150  0.322810  0.379070  0.350940  0.238420  0.154020  0.154020  0.238420  0.322810  0.379070  0.407200  0.407200  0.350940  0.350940  0.379070  0.407200  0.463460  0.435330  0.350940  0.266550  0.266550  0.379070  0.407200  0.407200  0.435330  0.407200  0.350940  0.350940  0.407200  0.463460  0.463460  0.379070  0.322810  0.435330  0.463460  0.435330  0.350940  0.322810  0.322810  0.350940  0.435330  0.491590  0.491590  0.435330  0.322810  0.238420  0.294680  0.407200  0.407200  0.435330  0.435330  0.463460  0.463460  0.407200  0.407200  0.435330  0.407200  0.379070  0.379070  0.379070  0.407200  0.435330  0.379070  0.350940  0.322810  0.350940  0.435330  0.463460  0.463460  0.491590  0.463460  0.322810  0.294680  0.322810  0.322810  0.350940  0.350940  0.379070  0.322810  0.350940  0.435330  0.435330  0.435330  0.407200  0.379070  0.379070  0.407200  0.435330  0.463460  0.463460  0.435330  0.407200  0.379070  0.379070  0.435330  0.463460  0.435330  0.350940  0.322810  0.435330  0.463460  0.435330  0.407200  0.379070  0.322810  0.350940  0.379070  0.435330  0.491590  0.491590  0.491590  0.491590  0.463460  0.519720  0.491590  0.435330  0.379070  0.350940  0.294680  0.294680  0.407200  0.463460  0.435330  0.435330  0.407200  0.407200  0.435330  0.463460  0.547850  0.604110  0.604110  0.491590  0.435330  0.491590  0.519720  0.463460  0.407200  0.350940  0.322810  0.379070  0.379070  0.407200  0.379070  0.379070  0.350940  0.407200  0.491590  0.519720  0.575980  0.491590  0.407200  0.463460  0.407200  0.350940  0.379070  0.463460  0.463460  0.463460  0.379070  0.379070  0.435330  0.491590  0.547850  0.491590  0.407200  0.322810  0.294680  0.294680  0.350940  0.407200  0.407200  0.379070  0.379070  0.407200  0.379070  0.350940  0.322810  0.294680  0.322810  0.350940  0.407200  0.435330  0.350940  0.238420  0.238420  0.238420  0.322810  0.435330  0.519720  0.463460  0.435330  0.407200  0.379070  0.407200  0.407200  0.407200  0.407200  0.407200  0.266550  0.238420  0.210280  0.350940  0.435330  0.435330  0.379070  0.379070  0.407200  0.463460  0.463460  0.435330  0.322810  0.266550  0.238420  0.238420  0.350940  0.379070  0.322810  0.294680  0.322810  0.379070  0.379070  0.379070  0.379070  0.350940  0.322810  0.350940  0.435330  0.407200  0.407200  0.435330  0.435330  0.435330  0.407200  0.435330  0.407200  0.407200  0.350940  0.322810  0.294680  0.322810  0.294680  0.238420  0.294680  0.294680  0.350940  0.407200  0.407200  0.379070  0.463460  0.519720  0.491590  0.407200  0.379070  0.407200  0.435330  0.379070  0.322810  0.322810  0.294680  0.294680  0.322810  0.407200  0.435330  0.379070  0.350940  0.379070  0.435330  0.519720  0.604110  0.547850  0.463460  0.435330  0.435330  0.435330  0.407200  0.350940  0.322810  0.294680  0.322810  0.322810  0.294680  0.294680  0.379070  0.407200  0.379070  0.350940  0.379070  0.491590  0.519720  0.491590  0.463460  0.491590  0.463460  0.407200  0.407200  0.350940  0.322810  0.350940  0.350940  0.407200  0.435330  0.407200  0.379070  0.379070  0.322810  0.266550  0.350940  0.463460  0.604110  0.575980  0.463460  0.379070  0.407200  0.463460  0.519720  0.491590  0.435330  0.407200  0.322810  0.322810  0.350940  0.350940  0.379070  0.379070  0.350940  0.294680  0.322810  0.294680  0.350940  0.350940  0.407200  0.435330  0.379070  0.350940  0.350940  0.407200  0.407200  0.379070  0.379070  0.435330  0.519720  0.491590  0.435330  0.379070  0.350940  0.350940  0.322810  0.350940  0.379070  0.435330  0.463460  0.491590  0.491590  0.547850  0.547850  0.547850  0.519720  0.379070  0.322810  0.322810  0.322810  0.238420  0.238420  0.294680  0.379070  0.435330  0.463460  0.519720  0.575980  0.463460  0.407200  0.407200  0.435330  0.463460  0.463460  0.407200  0.407200  0.407200  0.350940  0.294680  0.350940  0.379070  0.350940  0.350940  0.350940  0.322810  0.350940  0.322810  0.379070  0.463460  0.519720  0.519720  0.463460  0.379070  0.379070  0.435330  0.435330  0.379070  0.379070  0.379070  0.322810  0.379070  0.407200  0.379070  0.350940  0.379070  0.407200  0.463460  0.463460  0.463460  0.463460  0.435330  0.407200  0.379070  0.379070  0.379070  0.350940  0.322810  0.322810  0.379070  0.379070  0.350940  0.294680  0.294680  0.350940  0.379070  0.379070  0.407200  0.407200  0.435330  0.435330  0.379070  0.407200  0.491590  0.463460  0.407200  0.322810  0.238420  0.266550  0.322810  0.350940  0.407200  0.435330  0.463460  0.379070  0.407200  0.407200  0.407200  0.435330  0.435330  0.463460  0.463460  0.379070  0.350940  0.294680  0.294680  0.238420  0.210280  0.154020  0.154020  0.210280  0.238420  0.210280  0.154020  0.125890  0.182150  0.182150  0.182150  0.154020  0.069631  0.013370 -0.014760 -0.014760  0.097762  0.154020  0.069631  0.013370 -0.127280 -0.183540 -0.211670 -0.183540 -0.155410 -0.211670 -0.239810 -0.239810 -0.352330 -0.380460 -0.324200 -0.239810 -0.239810 -0.239810 -0.267940 -0.380460 -0.436720 -0.436720 -0.380460 -0.380460 -0.436720 -0.492980 -0.521110 -0.549240 -0.549240 -0.605500 -0.633630 -0.633630 -0.661760 -0.633630 -0.577370 -0.521110 -0.521110 -0.577370 -0.661760 -0.633630 -0.633630 -0.605500 -0.605500 -0.661760 -0.802420 -0.774290 -0.661760 -0.661760 -0.718030 -0.746160 -0.746160 -0.718030 -0.661760 -0.633630 -0.577370 -0.661760 -0.633630 -0.605500 -0.605500 -0.521110 -0.436720 -0.464850 -0.521110 -0.577370 -0.633630 -0.661760 -0.689890 -0.718030 -0.633630 -0.549240 -0.521110 -0.549240 -0.521110 -0.464850 -0.464850 -0.464850 -0.436720 -0.324200 -0.324200 -0.324200 -0.296070 -0.296070 -0.183540 -0.099152 -0.127280 -0.211670 -0.211670 -0.183540 -0.155410 -0.155410 -0.071022 -0.042891 -0.042891 -0.071022 -0.014760  0.125890  0.182150  0.154020  0.154020  0.182150  0.266550  0.322810  0.407200  0.435330  0.350940  0.294680  0.322810  0.407200  0.435330  0.407200  0.463460  0.491590  0.519720  0.519720  0.632240  0.660370  0.632240  0.660370  0.632240  0.688500  0.744770  0.772900  0.716640  0.688500  0.660370  0.660370  0.604110  0.688500  0.772900  0.829160  0.772900  0.688500  0.632240  0.660370 


; cmd = /home/grad00/soren885/capstone/ShapeletResearch/Execs/FastShapelet /home/grad00/soren885/capstone/Shapelet_Datasets/UCR_Master/CinC_ECG_torso_TRAIN 4 40 820 1 2 10 euclidean 1 0 10 ./replications/CinC_ECG_torso/CinC_ECG_torso_euclidean_unnormed_CID_REP03_tree.txt ./replications/CinC_ECG_torso/CinC_ECG_torso_euclidean_unnormed_CID_REP03_time.txt
; time =>  672.424  11.340  54.691   4.227 597.180 
; command = /home/grad00/soren885/capstone/ShapeletResearch/Execs/Classify /home/grad00/soren885/capstone/Shapelet_Datasets/UCR_Master/CinC_ECG_torso_TEST 4 1380 euclidean 1 0 ./replications/CinC_ECG_torso/CinC_ECG_torso_euclidean_unnormed_CID_REP03_tree.txt ./replications/CinC_ECG_torso/CinC_ECG_torso_euclidean_unnormed_CID_REP03_acc.txt
; accuracy= 63.986   Correct:883 , Wrong: 497


;   == Confusion Matrix ==
;   real |   3    2    4    1 
;   -----+------------------------
;   p  3 | 208   49    7  141 
;   p  2 |  72  210    2   44 
;   p  4 |  40   27  328   28 
;   p  1 |  23   56    8  137 

