;Shapelet Tree 

;random seed:1503377004, rand()=1748110531, rand()=741346522
;command = /home/grad00/soren885/capstone/ShapeletResearch/Execs/FastShapelet /home/grad00/soren885/capstone/Shapelet_Datasets/UCR_Master/CinC_ECG_torso_TRAIN 4 40 820 1 2 10 manhattan 1 0 10 ./replications/CinC_ECG_torso/CinC_ECG_torso_manhattan_unnormed_CID_REP09_tree.txt ./replications/CinC_ECG_torso/CinC_ECG_torso_manhattan_unnormed_CID_REP09_time.txt 

;Local Class:   0  1  2  3 
;Real  Class:   1  3  4  2 

;Node ID class   obj  pos  len  dist_th 
TreeSize: 24 
NonL  1    --     12   26  741  738.5863 ==>   2  12   0  13  /   3   0  10   0 
NonL  2    --      9  1008  397  127.9676 ==>   0   1   0  12  /   2  11   0   1 
NonL  3    --     12    0  733  696.5036 ==>   3   0   0   0  /   0   0  10   0 
Leaf  4     2    
NonL  5    --      5  1001  467  651.1331 ==>   0  11   0   0  /   2   0   0   1 
Leaf  6     1    
Leaf  7     4    
Leaf 10     3    
NonL 11    --      0  616   27  203.1333 ==>   2   0   0   0  /   0   0   0   1 
Leaf 22     1    
Leaf 23     2    

;Shapelet id   <data>
Shapelet   1  -0.137290 -0.146040 -0.159360 -0.165960 -0.158530 -0.155260 -0.169550 -0.180690 -0.176700 -0.182710 -0.198990 -0.197670 -0.196950 -0.217340 -0.219800 -0.207620 -0.235890 -0.243130 -0.127440  0.079781  0.073449  0.056042  0.057545  0.060449  0.059443  0.070271  0.081136  0.079584  0.084446  0.098635  0.096396  0.076060  0.061634  0.059754  0.059916  0.059132  0.059847  0.060276  0.059150  0.059180  0.061287  0.059531  0.048548  0.036203  0.036166  0.048661  0.059537  0.060932  0.059475  0.059762  0.059008  0.059308  0.067948  0.082865  0.095213  0.104750  0.117270  0.132140  0.140100  0.131010  0.110540  0.099720  0.102880  0.099028  0.084361  0.080093  0.082316  0.065787  0.039729  0.033561  0.042212  0.042199  0.036153  0.039068  0.050828  0.061595  0.062430  0.056063  0.058179  0.072592  0.079493  0.067643  0.055073  0.057643  0.069062  0.080997  0.093349  0.102870  0.102170  0.090738  0.079603  0.085348  0.108260  0.121590  0.110170  0.099772  0.110680  0.120490  0.108170  0.089661  0.080469  0.071375  0.056550  0.044025  0.034716  0.021944  0.013138  0.021731  0.036755  0.038612  0.037395  0.054868  0.081262  0.095189  0.103210  0.116160  0.123680  0.119870  0.117170  0.121290  0.121720  0.116600  0.119160  0.132050  0.140990  0.140490  0.140160  0.140410  0.131940  0.117390  0.105350  0.094026  0.081690  0.076937  0.079931  0.072483  0.049529  0.037437  0.055302  0.080309  0.084460  0.077718  0.078299  0.081286  0.079861  0.078741  0.080177  0.080694  0.075972  0.061574  0.049633  0.065770  0.104570  0.127680  0.121930  0.114490  0.121070  0.124580  0.113510  0.101160  0.099417  0.099561  0.089603  0.073802  0.061959  0.056990  0.059722  0.070828  0.082530  0.082664  0.074968  0.078696  0.100980  0.123880  0.125840  0.110330  0.099874  0.106610  0.122540  0.135550  0.142150  0.141180  0.131880  0.118470  0.105610  0.097143  0.097995  0.103970  0.099432  0.084308  0.081017  0.094853  0.104170  0.100060  0.096941  0.101050  0.101670  0.096895  0.098871  0.110810  0.121140  0.121490  0.118470  0.119390  0.121020  0.119520  0.118540  0.121170  0.121110  0.112490  0.098898  0.085964  0.077119  0.077222  0.088069  0.099786  0.101890  0.098945  0.099020  0.100580  0.099915  0.099057  0.100050  0.100230  0.099140  0.099581  0.100740  0.099356  0.097805  0.103970  0.117230  0.124890  0.118710  0.105970  0.095947  0.084180  0.067712  0.059759  0.068964  0.084961  0.096782  0.103340  0.100200  0.086559  0.079638  0.091565  0.110070  0.119450  0.120370  0.119670  0.119460  0.120180  0.120030  0.118900  0.120130  0.121100  0.118380  0.118710  0.123100  0.119280  0.113140  0.128610  0.155420  0.158030  0.139970  0.134020  0.142500  0.143130  0.132550  0.120680  0.109130  0.096771  0.084392  0.075978  0.078375  0.090745  0.100760  0.101110  0.098931  0.099516  0.100040  0.099760  0.099741  0.099428  0.099062  0.104840  0.120360  0.135550  0.140170  0.139380  0.141310  0.140070  0.135900  0.143280  0.157250  0.159380  0.159110  0.171890  0.179800  0.167370  0.155640  0.158790  0.162130  0.159550  0.159560  0.158030  0.144470  0.127270  0.119550  0.111380  0.091350  0.077978  0.093373  0.119730  0.125620  0.117360  0.117350  0.122680  0.120270  0.116440  0.121440  0.123700  0.111700  0.100080  0.106380  0.122310  0.134080  0.145860  0.158190  0.161810  0.159750  0.159790  0.159350  0.159060  0.162570  0.159650  0.146060  0.138980  0.140690  0.133600  0.120240  0.117040  0.120520  0.120190  0.119890  0.120040  0.117300  0.121640  0.134740  0.141830  0.140140  0.139920  0.139530  0.137240  0.144610  0.157810  0.161290  0.159920  0.161200  0.157770  0.156350  0.174440  0.199850  0.213350  0.222830  0.225150  0.204690  0.180890  0.178570  0.178330  0.164020  0.161510  0.177720  0.184770  0.178900  0.177940  0.180890  0.179920  0.184230  0.202140  0.226530  0.247540  0.258820  0.260350  0.260120  0.261250  0.257740  0.245270  0.230740  0.220390  0.210450  0.194770  0.170530  0.147490  0.139720  0.142230  0.138310  0.134400  0.150940  0.176550  0.188970  0.202820  0.237210  0.275290  0.296820  0.309290  0.320720  0.323230  0.318460  0.319110  0.319670  0.300440  0.263630  0.232130  0.210260  0.179980  0.142560  0.115590  0.094258  0.060127  0.016044 -0.016796 -0.038068 -0.065850 -0.101770 -0.136110 -0.171420 -0.217190 -0.265140 -0.309620 -0.365020 -0.426180 -0.466880 -0.481430 -0.490440 -0.507520 -0.530370 -0.565610 -0.618820 -0.679510 -0.735340 -0.782390 -0.825770 -0.859190 -0.869580 -0.857890 -0.833140 -0.810840 -0.801370 -0.807350 -0.824040 -0.845110 -0.876190 -0.913010 -0.942750 -0.963050 -0.982630 -1.015600 -1.063800 -1.122100 -1.182000 -1.226000 -1.244200 -1.232400 -1.201400 -1.165200 -1.129100 -1.092900 -1.046400 -0.991720 -0.946850 -0.919230 -0.897770 -0.871770 -0.856200 -0.859710 -0.865430 -0.860690 -0.847520 -0.837260 -0.826140 -0.805260 -0.781160 -0.764460 -0.759980 -0.749560 -0.719570 -0.682960 -0.660920 -0.663460 -0.675970 -0.687170 -0.699880 -0.713440 -0.722240 -0.722330 -0.718800 -0.705840 -0.674030 -0.636930 -0.610280 -0.595140 -0.583930 -0.572390 -0.560630 -0.555160 -0.566970 -0.580660 -0.575030 -0.561480 -0.552170 -0.532980 -0.495800 -0.462130 -0.442560 -0.421160 -0.394730 -0.370910 -0.348320 -0.324280 -0.306150 -0.300200 -0.292050 -0.266030 -0.228900 -0.192220 -0.157410 -0.129510 -0.115610 -0.092651 -0.042385  0.000273  0.012189  0.028243  0.066939  0.094473  0.099647  0.109050  0.122760  0.123170  0.114500  0.101800  0.079945  0.055635  0.042294  0.038439  0.038891  0.046922  0.061700  0.074699  0.083261  0.095200  0.116640  0.141140  0.156920  0.158640  0.145800  0.127660  0.119860  0.121240  0.118040  0.115640  0.132800  0.158420  0.165530  0.158190  0.157380  0.162040  0.160370  0.161980  0.185160  0.222700  0.250620  0.259620  0.259980  0.260070  0.259600  0.260540  0.260940  0.254040  0.239700  0.225530  0.218250  0.218030  0.225590  0.239360  0.252500  0.262420  0.273600  0.288890  0.299610  0.299810  0.301000  0.312180  0.327390  0.338430  0.348270  0.362050  0.375040  0.382320  0.381600  0.373100  0.359400  0.345360  0.338540  0.339160  0.341210  0.340270  0.338020  0.342150  0.354090  0.369040  0.379770  0.381730  0.379600  0.379060  0.381110  0.380650  0.377540  0.381510  0.393660  0.403350  0.401540  0.396680  0.400930  0.404480  0.394410  0.381180  0.384620  0.400680  0.412910  0.424180  0.436910  0.442480  0.440530  0.439190  0.440420  0.440060  0.440760  0.440800  0.432080  0.417200  0.403960  0.397760  0.399070  0.408120  0.421740  0.425250  0.413620  0.401350  0.399950  0.400120  0.396510  0.404550  0.418060  0.419020  0.420240  0.439710  0.467960  0.490560  0.516350  0.539400  0.542690  0.540820  0.552180  0.568730  0.579110  0.594450  0.627080  0.674170  0.724610  0.771590  0.816920  0.865700  0.909580  0.923350  0.909350  0.883150  0.839960  0.755360  0.606460  0.416430  0.206720 -0.009432 -0.228770 -0.461570 -0.695590 -0.941970 -1.208500 -1.495000 -1.803600 -2.136300 -2.521100 -2.928600 -3.319900 -3.691400 -4.038800 -4.360200 -4.639100 -4.899200 -5.164100 -5.438400 -5.741700 -6.051500 -6.339200 -6.588900 -6.791400 -6.953200 -7.060100 -7.124100 -7.152300 -7.120900 -7.021100 -6.845800 -6.628900 -6.404000 -6.193500 -6.024400 -5.861300 -5.679400 -5.502600 -5.372300 -5.304400 -5.275700 -5.308300 -5.401200 -5.475500 -5.468800 -5.364000 -5.215600 -5.053000 -4.856900 -4.603500 -4.257500 -3.825200 -3.330000 -2.798600 -2.251500 -1.668700 -1.066200 -0.510170 
Shapelet   2   0.320130  0.319790  0.320060  0.319820  0.320080  0.320250  0.318850  0.320670  0.330600  0.347230  0.358930  0.360300  0.360320  0.361850  0.357060  0.344020  0.335580  0.340040  0.351590  0.362640  0.363530  0.352060  0.340720  0.339380  0.339190  0.327220  0.314260  0.317960  0.333280  0.339880  0.328420  0.314860  0.317240  0.331450  0.340470  0.339950  0.340670  0.341070  0.336760  0.340390  0.354460  0.359370  0.346160  0.330910  0.320680  0.314750  0.323850  0.338750  0.334860  0.320940  0.325070  0.343380  0.355430  0.365520  0.378360  0.382840  0.379890  0.379610  0.378520  0.365230  0.346820  0.340210  0.341820  0.336840  0.323670  0.316520  0.320090  0.322140  0.318890  0.318390  0.322260  0.320670  0.316040  0.322080  0.325520  0.309500  0.298870  0.318650  0.342280  0.342730  0.339730  0.341270  0.330260  0.320060  0.330520  0.343410  0.341490  0.339170  0.340210  0.330420  0.315430  0.304070  0.291810  0.280520  0.277840  0.280480  0.280190  0.280210  0.280510  0.271790  0.257680  0.254550  0.267430  0.279240  0.279210  0.280800  0.292670  0.302890  0.301040  0.302030  0.321330  0.340190  0.335830  0.321890  0.320960  0.320390  0.306680  0.299690  0.302000  0.292000  0.280180  0.289750  0.300580  0.288210  0.274810  0.278840  0.282930  0.279440  0.278460  0.281090  0.280890  0.274000  0.258570  0.242680  0.240850  0.242520  0.226280  0.199720  0.183440  0.178920  0.178340  0.185530  0.199300  0.204300  0.197890  0.196020  0.207450  0.219250  0.220660  0.220090  0.221370  0.215630  0.202270  0.195130  0.201080  0.212520  0.225720  0.238200  0.237950  0.218930  0.200060  0.203930  0.218280  0.215520  0.200280  0.196290  0.200320  0.189090  0.166420  0.159310  0.172000  0.179890  0.167880  0.153930  0.157970  0.167130  0.156800  0.130650  0.115290  0.118240  0.122560  0.119460  0.117550  0.121470  0.121390  0.116000  0.119970  0.133810  0.140560  0.139400  0.142050  0.140430  0.126790  0.119390  0.121550  0.113170  0.100490  0.100740  0.098082  0.083787  0.080163  0.081703  0.061970  0.037938  0.036071  0.040647  0.039053  0.046674  0.060127  0.061238  0.060939  0.074341  0.086172  0.080115  0.065864  0.058662  0.058996  0.060395  0.059873  0.058658  0.060703  0.070949  0.092359  0.117010  0.122190  0.094046  0.054298  0.032524  0.022685  0.007414 -0.000201  0.011444  0.022250  0.020579  0.019815  0.019626  0.008562 -0.002735 -0.001531 -0.002362 -0.019088 -0.037668 -0.038962 -0.026492 -0.013313 -0.001741  0.005588 -0.003531 -0.028121 -0.049398 -0.059284 -0.063409 -0.059439 -0.046472 -0.038556 -0.040291 -0.035594 -0.019717 -0.013111 -0.026527 -0.039608 -0.038324 -0.040176 -0.054618 -0.059589 -0.046024 -0.036617 -0.040016 -0.041190 -0.041043 -0.052118 -0.069181 -0.079611 -0.082416 -0.079685 -0.069503 -0.050962 -0.026202 -0.004876 -0.000761 -0.012659 -0.023150 -0.021983 -0.017929 -0.020436 -0.022877 -0.018709 -0.018071 -0.024841 -0.021228 -0.004767 -0.001902 -0.015982 -0.021297 -0.019760 -0.031402 -0.040177 -0.019160  0.016986  0.038015  0.041445  0.039462  0.038167  0.042778  0.055930  0.066060  0.059137  0.044003  0.039831  0.041443  0.031667  0.019774  0.026909  0.043680  0.044219  0.033668  0.038218  0.054986  0.059145  0.056028  0.068019  0.079978  0.069450  0.059716  0.071844  0.082518  0.079827  0.085856  0.100680  0.103180  0.098128  0.098893  0.100650  0.099813  0.100060  0.099138  0.098104  0.105980  0.119200  0.123390  0.118360  0.116990  0.125550  0.138210  0.150370  0.161560  0.164100  0.153160  0.141000  0.139200  0.139670  0.137420  0.144260  0.157590  0.161110  0.160030  0.169580  0.185030  0.196340  0.207880  0.219790  0.223150  0.217740  0.206150  0.190340  0.180250  0.180670  0.178420  0.165740  0.156190  0.158620  0.168560  0.181660  0.185780  0.171790  0.159540  0.168510  0.180290  0.178790  0.183610  0.197820  0.196300  0.179860  0.167760  0.154150  0.128680  0.111440  0.118830  0.133960  0.141030  0.150760  0.174430  0.198040  0.203920  0.199080  0.198290  0.201030 
Shapelet   3   0.997940  0.969810  0.885420  0.801030  0.829160  0.801030  0.744770  0.716640  0.772900  0.744770  0.688500  0.688500  0.716640  0.660370  0.604110  0.575980  0.575980  0.547850  0.491590  0.547850  0.519720  0.435330  0.322810  0.294680  0.294680  0.238420  0.125890  0.069631 -0.014760 -0.099152 -0.211670  0.322810  0.322810  0.350940  0.379070  0.435330  0.519720  0.660370  0.604110  0.463460  0.379070  0.350940  0.350940  0.350940  0.407200  0.435330  0.435330  0.407200  0.350940  0.379070  0.435330  0.435330  0.379070  0.350940  0.350940  0.379070  0.435330  0.547850  0.547850  0.463460  0.407200  0.435330  0.463460  0.435330  0.407200  0.350940  0.350940  0.379070  0.407200  0.463460  0.379070  0.379070  0.435330  0.463460  0.463460  0.491590  0.491590  0.547850  0.519720  0.463460  0.435330  0.491590  0.491590  0.463460  0.519720  0.547850  0.491590  0.435330  0.435330  0.491590  0.519720  0.519720  0.463460  0.463460  0.463460  0.463460  0.435330  0.435330  0.407200  0.322810  0.322810  0.435330  0.547850  0.604110  0.604110  0.519720  0.463460  0.379070  0.435330  0.519720  0.547850  0.575980  0.604110  0.491590  0.379070  0.435330  0.519720  0.519720  0.435330  0.379070  0.463460  0.491590  0.491590  0.463460  0.547850  0.632240  0.604110  0.519720  0.463460  0.519720  0.604110  0.575980  0.407200  0.350940  0.350940  0.407200  0.519720  0.547850  0.575980  0.604110  0.519720  0.463460  0.435330  0.407200  0.407200  0.379070  0.407200  0.379070  0.407200  0.435330  0.463460  0.463460  0.463460  0.463460  0.463460  0.435330  0.407200  0.435330  0.463460  0.463460  0.463460  0.463460  0.491590  0.463460  0.435330  0.350940  0.350940  0.379070  0.407200  0.407200  0.350940  0.238420  0.294680  0.519720  0.604110  0.575980  0.604110  0.604110  0.575980  0.604110  0.604110  0.547850  0.491590  0.379070  0.322810  0.379070  0.407200  0.407200  0.407200  0.463460  0.491590  0.491590  0.435330  0.407200  0.463460  0.547850  0.575980  0.575980  0.632240  0.547850  0.435330  0.407200  0.435330  0.407200  0.407200  0.407200  0.407200  0.407200  0.435330  0.463460  0.463460  0.491590  0.604110  0.632240  0.604110  0.575980  0.604110  0.604110  0.547850  0.519720  0.463460  0.491590  0.491590  0.407200  0.350940  0.379070  0.379070  0.322810  0.350940  0.407200  0.463460  0.519720  0.435330  0.435330  0.463460  0.519720  0.519720  0.575980  0.604110  0.519720  0.435330  0.435330  0.519720  0.491590  0.407200  0.350940  0.322810  0.322810  0.350940  0.379070  0.463460  0.575980  0.660370  0.575980  0.519720  0.491590  0.491590  0.519720  0.547850  0.519720  0.491590  0.519720  0.547850  0.604110  0.632240  0.575980  0.491590  0.407200  0.435330  0.519720  0.604110  0.604110  0.519720  0.463460  0.407200  0.435330  0.491590  0.519720  0.519720  0.491590  0.435330  0.463460  0.491590  0.575980  0.604110  0.575980  0.519720  0.463460  0.435330  0.379070  0.407200  0.435330  0.463460  0.491590  0.547850  0.519720  0.491590  0.575980  0.604110  0.604110  0.604110  0.519720  0.547850  0.575980  0.547850  0.463460  0.435330  0.407200  0.407200  0.435330  0.463460  0.407200  0.379070  0.407200  0.379070  0.379070  0.491590  0.519720  0.547850  0.575980  0.575980  0.547850  0.575980  0.660370  0.660370  0.632240  0.491590  0.547850  0.632240  0.575980  0.519720  0.435330  0.407200  0.491590  0.547850  0.604110  0.660370  0.632240  0.547850  0.463460  0.379070  0.435330  0.435330  0.463460  0.463460  0.435330  0.379070  0.407200  0.463460  0.519720  0.519720  0.463460  0.435330  0.547850  0.519720  0.547850  0.519720  0.519720  0.547850  0.519720  0.547850  0.491590  0.547850  0.575980  0.491590  0.435330  0.407200  0.407200  0.407200  0.435330  0.435330  0.435330  0.379070  0.266550  0.182150  0.294680  0.435330  0.547850  0.575980  0.575980  0.575980  0.547850  0.575980  0.547850  0.547850  0.519720  0.491590  0.463460  0.519720  0.575980  0.632240  0.575980  0.519720  0.547850  0.547850  0.547850  0.547850  0.575980  0.463460  0.379070  0.407200  0.491590  0.519720  0.407200  0.379070  0.379070  0.407200  0.435330  0.435330  0.379070  0.379070  0.463460  0.491590  0.435330  0.435330  0.435330  0.491590  0.604110  0.632240  0.632240  0.575980  0.547850  0.547850  0.547850  0.575980  0.547850  0.491590  0.463460  0.491590  0.519720  0.491590  0.491590  0.463460  0.435330  0.435330  0.407200  0.407200  0.463460  0.435330  0.379070  0.350940  0.322810  0.266550  0.154020  0.013370 -0.042891 -0.127280 -0.211670 -0.211670 -0.267940 -0.352330 -0.464850 -0.464850 -0.436720 -0.436720 -0.464850 -0.492980 -0.521110 -0.605500 -0.661760 -0.661760 -0.605500 -0.605500 -0.633630 -0.577370 -0.549240 -0.605500 -0.633630 -0.633630 -0.577370 -0.521110 -0.549240 -0.605500 -0.549240 -0.464850 -0.380460 -0.296070 -0.239810 -0.296070 -0.296070 -0.296070 -0.267940 -0.267940 -0.296070 -0.324200 -0.380460 -0.549240 -0.689890 -0.802420 -0.830550 -0.858680 -0.999330 -1.111900 -1.168100 -1.224400 -1.224400 -1.140000 -1.083700 -1.027500 -0.999330 -0.943070 -0.830550 -0.689890 -0.605500 -0.492980 -0.352330 -0.296070 -0.380460 -0.408590 -0.436720 -0.380460 -0.352330 -0.380460 -0.492980 -0.633630 -0.689890 -0.718030 -0.689890 -0.689890 -0.577370 -0.492980 -0.464850 -0.436720 -0.352330 -0.239810 -0.183540 -0.211670 -0.239810 -0.211670 -0.239810 -0.211670 -0.239810 -0.239810 -0.267940 -0.211670 -0.071022  0.041501  0.125890  0.210280  0.210280  0.182150  0.182150  0.266550  0.322810  0.407200  0.407200  0.379070  0.435330  0.575980  0.632240  0.575980  0.604110  0.632240  0.604110  0.632240  0.660370  0.857290  0.969810  0.941680  0.744770  0.660370  0.688500  0.801030  0.772900  0.660370  0.632240  0.632240  0.660370  0.688500  0.660370  0.688500  0.744770  0.772900  0.772900  0.716640  0.801030  0.801030  0.772900  0.801030  0.857290  0.801030  0.744770  0.744770  0.744770  0.716640  0.688500  0.604110  0.547850  0.604110  0.772900  0.913550  0.913550  0.829160  0.744770  0.716640  0.772900  0.744770  0.744770  0.801030  0.829160  0.772900  0.772900  0.744770  0.772900  0.801030  0.829160  0.801030  0.716640  0.688500  0.632240  0.547850  0.379070  0.294680  0.238420  0.125890  0.041501  0.041501 -0.042891 -0.267940 -0.521110 -0.830550 -1.083700 -1.280600 -1.449400 -1.674500 -2.012000 -2.377700 -2.771600 -3.081000 -3.306000 -3.474800 -3.531100 -3.559200 -3.615500 -3.728000 -3.812400 -3.840500 -3.953000 -4.262500 -4.712600 -5.162700 -5.640900 -5.978400 -6.316000 -6.344100 -6.062800 -5.444000 -4.881400 -4.065600 -3.165400 -2.546500 -2.237100 -1.983900 -1.815100 -1.702600 -1.646300 -1.477600 -1.140000 -0.971200 -0.943070 -0.914940 -0.746160 -0.436720  0.069631  0.463460  0.744770  0.913550  1.054200  1.448000  2.095000  2.798300  3.248400  3.473400  3.473400  3.360900  3.107700  2.826400  2.545100  2.066900  1.419900  1.026100  0.801030  0.716640  0.716640  0.660370  0.575980  0.407200  0.350940  0.350940  0.350940  0.379070  0.350940  0.350940  0.350940  0.350940  0.379070  0.435330  0.463460  0.463460  0.491590  0.463460  0.407200  0.322810  0.322810  0.350940  0.407200  0.350940  0.350940  0.294680  0.238420  0.210280  0.294680  0.322810  0.294680  0.238420  0.266550  0.350940  0.379070  0.379070  0.322810  0.210280  0.210280  0.238420  0.294680  0.294680  0.238420  0.182150  0.097762  0.097762  0.125890  0.154020  0.154020  0.125890 
Shapelet   5  -0.427000 -0.426930 -0.426520 -0.427040 -0.424950 -0.414050 -0.404070 -0.406590 -0.413360 -0.415740 -0.416120 -0.412870 -0.403520 -0.394690 -0.392190 -0.393110 -0.393260 -0.391780 -0.386660 -0.375570 -0.363630 -0.358980 -0.359300 -0.357310 -0.352890 -0.345910 -0.335670 -0.330770 -0.334680 -0.337290 -0.336370 -0.336760 -0.333320 -0.323970 -0.318890 -0.321930 -0.325340 -0.325260 -0.325210 -0.324820 -0.318000 -0.305670 -0.295670 -0.288120 -0.282210 -0.287090 -0.299770 -0.302530 -0.295770 -0.291810 -0.289380 -0.284610 -0.277370 -0.267650 -0.262630 -0.263240 -0.260180 -0.257230 -0.261310 -0.264190 -0.262590 -0.262640 -0.262070 -0.255520 -0.244070 -0.232940 -0.228890 -0.232800 -0.238210 -0.240300 -0.236810 -0.228510 -0.222630 -0.222840 -0.223790 -0.223170 -0.223320 -0.222010 -0.215970 -0.208140 -0.202980 -0.200030 -0.196290 -0.191850 -0.188750 -0.185240 -0.178340 -0.170840 -0.167060 -0.166900 -0.166110 -0.158470 -0.147060 -0.144690 -0.149480 -0.146220 -0.135870 -0.128690 -0.120280 -0.106560 -0.098971 -0.100400 -0.097016 -0.088720 -0.087003 -0.087138 -0.082899 -0.079540 -0.073960 -0.061956 -0.052015 -0.046358 -0.038579 -0.030203 -0.023114 -0.011467  0.003099  0.009104  0.008164  0.015073  0.030281  0.041300  0.045853  0.049234  0.053002  0.058756  0.068623  0.080138  0.091102  0.103000  0.114340  0.124390  0.138020  0.153530  0.163380  0.168280  0.172090  0.175300  0.180210  0.188210  0.198040  0.212130  0.231970  0.247960  0.252130  0.256080  0.270350  0.283770  0.290400  0.302710  0.319390  0.325350  0.327920  0.344100  0.363440  0.372000  0.379350  0.387260  0.387080  0.389690  0.403040  0.415740  0.424510  0.432280  0.438420  0.448970  0.465340  0.480720  0.494570  0.505770  0.512830  0.520980  0.528760  0.531760  0.537720  0.550760  0.563000  0.571570  0.579570  0.586760  0.594450  0.607420  0.623720  0.632790  0.631240  0.631230  0.641580  0.653320  0.657670  0.659640  0.664740  0.674050  0.687690  0.698760  0.702450  0.705470  0.710200  0.715800  0.725870  0.732950  0.731540  0.734900  0.744200  0.747800  0.751510  0.761210  0.769050  0.773690  0.778290  0.783890  0.794500  0.806630  0.811200  0.810830  0.812270  0.815200  0.818520  0.823650  0.833210  0.845780  0.851830  0.847790  0.842820  0.840420  0.838610  0.842320  0.852160  0.862730  0.873160  0.880240  0.882880  0.887600  0.891400  0.890080  0.892490  0.897070  0.893210  0.888380  0.891650  0.895460  0.896770  0.903290  0.914620  0.921280  0.919220  0.914110  0.912670  0.913970  0.913520  0.912450  0.914130  0.917450  0.919480  0.919510  0.921640  0.929450  0.936990  0.940130  0.942990  0.941500  0.932580  0.929660  0.937490  0.945180  0.948520  0.947300  0.942480  0.941170  0.941930  0.937810  0.932830  0.930460  0.929410  0.932700  0.936480  0.932580  0.926540  0.924880  0.921480  0.912100  0.900730  0.892270  0.888240  0.884670  0.880200  0.877880  0.872630  0.860630  0.850580  0.844680  0.836720  0.830040  0.828730  0.828660  0.827130  0.821540  0.809770  0.799000  0.793960  0.786740  0.774470  0.765030  0.757950  0.745560  0.729200  0.713870  0.700740  0.691200  0.683740  0.675710  0.668910  0.661640  0.650670  0.639680  0.628690  0.613800  0.599460  0.588500  0.575170  0.559120  0.547550  0.542900  0.538610  0.527240  0.511030  0.497600  0.486540  0.474710  0.463970  0.452810  0.440140  0.430360  0.419410  0.402850  0.390730  0.384090  0.370890  0.355570  0.348740  0.343860  0.332720  0.317370  0.303470  0.294880  0.287710  0.276930  0.265320  0.254140  0.243930  0.239630  0.236260  0.227690  0.222530  0.219410  0.208320  0.198750  0.195990  0.189570  0.181540  0.174440  0.162740  0.153120  0.146260  0.131810  0.118350  0.116140  0.112320  0.100360  0.093534  0.094788  0.090656  0.078492  0.066742  0.055024  0.043662  0.040792  0.042762  0.038158  0.029177  0.024461  0.025221  0.028914  0.031514  0.026862  0.015384  0.005206 -0.001788 -0.009572 -0.016272 -0.019428 -0.020396 -0.019013 -0.019136 -0.028172 -0.041810 -0.047928 -0.044796 -0.042065 -0.047091 -0.055622 -0.061589 -0.069580 -0.079601 -0.081764 -0.081521 -0.089026 -0.094523 -0.093274 -0.093459 -0.092053 -0.087720 -0.087097 -0.088014 -0.092549 -0.104860 -0.111290 -0.104990 -0.099158 -0.099815 -0.104160 -0.111720 -0.118450 -0.121360 -0.124660 -0.128860 -0.127350 -0.119570 -0.114350 -0.115710 -0.117130 -0.113960 -0.110200 -0.109710 -0.110600 -0.110160 -0.109610 -0.111630 -0.115750 -0.117240 -0.113740 -0.110150 -0.110130 -0.109430 -0.104490 -0.097056 -0.090011 -0.087507 -0.091076 -0.094564 -0.093125 -0.089167 -0.086769 -0.087535 -0.088369 -0.086460 -0.087624 -0.095340 -0.101140 -0.098636 -0.088795 -0.073098 -0.058866 -0.056491 -0.063965 -0.070714 -0.071757 -0.068712 
Shapelet  11  -3.895300 -2.816500 -1.719900 -0.534990  0.791450  2.011800  2.913700  3.780300  4.629300  5.283600  5.796500  6.486300  7.229100  7.883400  8.590900  9.457500 10.200000 10.536000 10.483000 10.147000  9.705100  9.156800  8.325600  6.981500  5.301300  3.886500  3.019900 


; cmd = /home/grad00/soren885/capstone/ShapeletResearch/Execs/FastShapelet /home/grad00/soren885/capstone/Shapelet_Datasets/UCR_Master/CinC_ECG_torso_TRAIN 4 40 820 1 2 10 manhattan 1 0 10 ./replications/CinC_ECG_torso/CinC_ECG_torso_manhattan_unnormed_CID_REP09_tree.txt ./replications/CinC_ECG_torso/CinC_ECG_torso_manhattan_unnormed_CID_REP09_time.txt
; time =>  992.618  15.081  75.265   5.492 890.282 
; command = /home/grad00/soren885/capstone/ShapeletResearch/Execs/Classify /home/grad00/soren885/capstone/Shapelet_Datasets/UCR_Master/CinC_ECG_torso_TEST 4 1380 manhattan 1 0 ./replications/CinC_ECG_torso/CinC_ECG_torso_manhattan_unnormed_CID_REP09_tree.txt ./replications/CinC_ECG_torso/CinC_ECG_torso_manhattan_unnormed_CID_REP09_acc.txt
; accuracy= 66.884   Correct:923 , Wrong: 457


;   == Confusion Matrix ==
;   real |   3    2    4    1 
;   -----+------------------------
;   p  3 | 176   54    4   64 
;   p  2 | 126  255   23   91 
;   p  4 |  16   24  316   19 
;   p  1 |  25    9    2  176 

