;Shapelet Tree 

;random seed:1503429792, rand()=811419124, rand()=298362871
;command = /home/grad00/soren885/capstone/ShapeletResearch/Execs/FastShapelet /home/grad00/soren885/capstone/Shapelet_Datasets/UCR_Master/CinC_ECG_torso_TRAIN 4 40 820 1 2 10 euclidean 1 0 10 ./replications/CinC_ECG_torso/CinC_ECG_torso_euclidean_unnormed_CID_REP08_tree.txt ./replications/CinC_ECG_torso/CinC_ECG_torso_euclidean_unnormed_CID_REP08_time.txt 

;Local Class:   0  1  2  3 
;Real  Class:   1  3  4  2 

;Node ID class   obj  pos  len  dist_th 
TreeSize: 12 
NonL  1    --     23    7  759  51.5435 ==>   5  12   0  13  /   0   0  10   0 
NonL  2    --      0  221  397  13.9895 ==>   5   0   0   0  /   0  12   0  13 
Leaf  3     4    
Leaf  4     1    
NonL  5    --      8  982  393   7.6152 ==>   0   1   0  12  /   0  11   0   1 
Leaf 10     2    
Leaf 11     3    

;Shapelet id   <data>
Shapelet   1  -0.163310 -0.160550 -0.166800 -0.168140 -0.145100 -0.116390 -0.115970 -0.116810 -0.117410 -0.112120 -0.098602 -0.084240 -0.077979 -0.078382 -0.078361 -0.078331 -0.082583 -0.089146 -0.094638 -0.100580 -0.106380 -0.105410 -0.096452 -0.088926 -0.088615 -0.088980 -0.083848 -0.078520 -0.078415 -0.077859 -0.071684 -0.066322 -0.068955 -0.075489 -0.079536 -0.084545 -0.093625 -0.097807 -0.089271 -0.076276 -0.069903 -0.069036 -0.069106 -0.069572 -0.068999 -0.068093 -0.071212 -0.077272 -0.082377 -0.088574 -0.095712 -0.097311 -0.096378 -0.103800 -0.116380 -0.120050 -0.114550 -0.113930 -0.121770 -0.125940 -0.120920 -0.115660 -0.115810 -0.116640 -0.116340 -0.117230 -0.115760 -0.109700 -0.105850 -0.106840 -0.104630 -0.096684 -0.093551 -0.102260 -0.114230 -0.118400 -0.116310 -0.115560 -0.116780 -0.116720 -0.115840 -0.116320 -0.120310 -0.128190 -0.134590 -0.134650 -0.134810 -0.143690 -0.156550 -0.163100 -0.163500 -0.163620 -0.161710 -0.152530 -0.140200 -0.132690 -0.127660 -0.117960 -0.106270 -0.099387 -0.096788 -0.096669 -0.100920 -0.106940 -0.108360 -0.106280 -0.106210 -0.107990 -0.107180 -0.102070 -0.096384 -0.095639 -0.100770 -0.106350 -0.110400 -0.118110 -0.129850 -0.138960 -0.143780 -0.148870 -0.154730 -0.159970 -0.166510 -0.172440 -0.171340 -0.163330 -0.156130 -0.153810 -0.153810 -0.156040 -0.163270 -0.171350 -0.172730 -0.171640 -0.176940 -0.182430 -0.178760 -0.171820 -0.166790 -0.159380 -0.154060 -0.158660 -0.163720 -0.158470 -0.152140 -0.153390 -0.155190 -0.154150 -0.157800 -0.167320 -0.173120 -0.170170 -0.163640 -0.157970 -0.152240 -0.146240 -0.143600 -0.144620 -0.145190 -0.144520 -0.144420 -0.144910 -0.144760 -0.144480 -0.144750 -0.144590 -0.145530 -0.151940 -0.163650 -0.173830 -0.179420 -0.184910 -0.190670 -0.194890 -0.201670 -0.209770 -0.209460 -0.202750 -0.201180 -0.201500 -0.195770 -0.191440 -0.192310 -0.189220 -0.182900 -0.182050 -0.181990 -0.175970 -0.171610 -0.172900 -0.170490 -0.162580 -0.160260 -0.167260 -0.172830 -0.171970 -0.173340 -0.179670 -0.182850 -0.182030 -0.185780 -0.191940 -0.188980 -0.179980 -0.179510 -0.188160 -0.192030 -0.189700 -0.193680 -0.201060 -0.198390 -0.192070 -0.196030 -0.201620 -0.196210 -0.189590 -0.191150 -0.193270 -0.191750 -0.191250 -0.192110 -0.191740 -0.194240 -0.201610 -0.204860 -0.198340 -0.191800 -0.195260 -0.201280 -0.201240 -0.202250 -0.208380 -0.213270 -0.219210 -0.231430 -0.239760 -0.234580 -0.225310 -0.220840 -0.216480 -0.209950 -0.204420 -0.197910 -0.185980 -0.172240 -0.163180 -0.157480 -0.152350 -0.152130 -0.161400 -0.173020 -0.175660 -0.171710 -0.171310 -0.176650 -0.182160 -0.186680 -0.193750 -0.200190 -0.201190 -0.201010 -0.205800 -0.211430 -0.211520 -0.211230 -0.217960 -0.229670 -0.240000 -0.246360 -0.249490 -0.249320 -0.245400 -0.238970 -0.232490 -0.228940 -0.229290 -0.228920 -0.220780 -0.207610 -0.200020 -0.195520 -0.184720 -0.173690 -0.172160 -0.172570 -0.166510 -0.162100 -0.163330 -0.163410 -0.163910 -0.169270 -0.175400 -0.180640 -0.189940 -0.202120 -0.213090 -0.224310 -0.230270 -0.225130 -0.220280 -0.225580 -0.229910 -0.223730 -0.215580 -0.211090 -0.208780 -0.212200 -0.218650 -0.221190 -0.227780 -0.243240 -0.247630 -0.230590 -0.213840 -0.210680 -0.210560 -0.211090 -0.216790 -0.221270 -0.220480 -0.220620 -0.220180 -0.213950 -0.210810 -0.217290 -0.223440 -0.220560 -0.213350 -0.210870 -0.216280 -0.225560 -0.229820 -0.225570 -0.219060 -0.213760 -0.207170 -0.201660 -0.203910 -0.211740 -0.213790 -0.207340 -0.201730 -0.201870 -0.201170 -0.195250 -0.190920 -0.191610 -0.190520 -0.182580 -0.170870 -0.160830 -0.154780 -0.155410 -0.162910 -0.170730 -0.173040 -0.172350 -0.175200 -0.181580 -0.187080 -0.193200 -0.204070 -0.215950 -0.220400 -0.218910 -0.220640 -0.223100 -0.216010 -0.203660 -0.199810 -0.201370 -0.193710 -0.176050 -0.158820 -0.148040 -0.144740 -0.145420 -0.144090 -0.143210 -0.148630 -0.154100 -0.150620 -0.143460 -0.138520 -0.130380 -0.118370 -0.110160 -0.106480 -0.101340 -0.094710 -0.089515 -0.081992 -0.068184 -0.051291 -0.034851 -0.018087 -0.001795  0.006374  0.002318 -0.004752 -0.004775 -0.000972 -0.002705 -0.006487 -0.000719  0.011705  0.017581  0.015955  0.017903  0.026992  0.037998  0.049646  0.060919  0.068520  0.072740  0.073692  0.070377  0.064216  0.061425  0.063095  0.063306  0.063080  0.068391  0.080547  0.091061  0.095630  0.103590  0.119820  0.142940  0.172630  0.204340  0.226700  0.236990  0.249490  0.267490  0.283680  0.301760  0.324610  0.344060  0.353990  0.360200  0.365500  0.369240  0.379420  0.397150  0.412710  0.421890  0.428040  0.431490  0.426070  0.413840  0.403600  0.397760  0.391280  0.375320  0.351820  0.330260  0.310160  0.285040  0.259380  0.249030  0.251400  0.249380  0.241630  0.235160  0.230760  0.224900  0.221230  0.223690  0.228130  0.235800  0.247600  0.256130  0.252370  0.242260  0.244420  0.256970  0.263350  0.261580  0.260820  0.260850  0.255150  0.248720  0.243710  0.233760  0.222390  0.220130  0.226130  0.225680  0.214060  0.204370  0.203330  0.204780  0.204310  0.207120  0.214110  0.216560  0.211980  0.201470  0.181590  0.150770  0.118160  0.097059  0.086267  0.075822  0.064477  0.057179  0.052611  0.042735  0.026560  0.009898 -0.006478 -0.023540 -0.036924 -0.042400 -0.047296 -0.061153 -0.079029 -0.095130 -0.113970 -0.136970 -0.156800 -0.172340 -0.189290 -0.205190 -0.216140 -0.226460 -0.237960 -0.246080 -0.248860 -0.248840 -0.248330 -0.248420 -0.249380 -0.248230 -0.242700 -0.237250 -0.238040 -0.241790 -0.238750 -0.230960 -0.230870 -0.237380 -0.241630 -0.248490 -0.261180 -0.268340 -0.267320 -0.268900 -0.268080 -0.256010 -0.248080 -0.254230 -0.259910 -0.258280 -0.258140 -0.257440 -0.250840 -0.248930 -0.256160 -0.263020 -0.267990 -0.274200 -0.277380 -0.276650 -0.279600 -0.286540 -0.291910 -0.298050 -0.304360 -0.303630 -0.296210 -0.289170 -0.285650 -0.285300 -0.287790 -0.286940 -0.280100 -0.276830 -0.278070 -0.272720 -0.260150 -0.251300 -0.248310 -0.247140 -0.250690 -0.256830 -0.260420 -0.268190 -0.284670 -0.300920 -0.311370 -0.322500 -0.333530 -0.335730 -0.332620 -0.332540 -0.334760 -0.333880 -0.328860 -0.322640 -0.316600 -0.313460 -0.314480 -0.313250 -0.303040 -0.289780 -0.285680 -0.286750 -0.281860 -0.276770 -0.280870 -0.289510 -0.294770 -0.297370 -0.295700 -0.285340 -0.273220 -0.267520 -0.269170 -0.276520 -0.284210 -0.286140 -0.285120 -0.289610 -0.295500 -0.295400 -0.296500 -0.302940 -0.304680 -0.297300 -0.292120 -0.296690 -0.303250 -0.305510 -0.305170 -0.305430 -0.305150 -0.300330 -0.292760 -0.286810 -0.287500 -0.295700 -0.303090 -0.305320 -0.309490 -0.324990 -0.342010 -0.348600 -0.354090 -0.365140 -0.378080 -0.395850 -0.426140 -0.461780 -0.494230 -0.531960 -0.578210 -0.624380 -0.668090 -0.709950 -0.741610 -0.763100 -0.780720 -0.786890 -0.768400 -0.723560 -0.668430 -0.602140 -0.517760 -0.423920 -0.328490 -0.231960 -0.112790  0.026504  0.168520  0.319370  0.490350  0.698000  0.924680  1.159500  1.406300  1.650600  1.893700  2.132000  2.386500  2.666400  2.955400  3.262400  3.573900  3.893600  4.223300  4.551300  4.877400  5.171900  5.448600  5.724800  5.987800  6.219800  6.397700  6.556500  6.714600  6.871600  7.039500  7.197800  7.336900  7.451900  7.552600  7.644100  7.711200  7.772700  7.826300  7.830100  7.758100  7.604100  7.405000  7.177700  6.918200  6.632900  6.296600  5.900500  5.437500  4.903100  4.288800  3.578200  2.838500  2.144900  1.556200  1.119300  0.825240  0.635940  0.480770  0.341560  0.218080  0.078666 -0.078841 -0.248680 -0.394880 -0.498690 -0.561800 -0.579180 -0.570150 -0.543970 -0.519690 -0.510330 -0.520640 -0.551250 -0.587110 -0.612030 -0.617330 -0.602040 -0.569210 -0.524560 -0.478270 -0.438830 -0.406370 -0.376650 -0.350270 -0.327360 
Shapelet   2  -0.092842 -0.039785 -0.039785 -0.092842 -0.110530 -0.092842 -0.057471 -0.004413  0.013272  0.030958  0.048644  0.084016  0.154760  0.243190  0.207820  0.119390  0.084016  0.030958  0.066330  0.137070  0.190130  0.172440  0.137070  0.137070  0.119390  0.119390  0.154760  0.172440  0.154760  0.101700  0.030958  0.030958  0.048644  0.084016  0.101700  0.066330 -0.004413 -0.092842 -0.110530 -0.075157 -0.022099  0.013272  0.013272  0.048644  0.084016  0.048644  0.066330  0.137070  0.154760  0.172440  0.190130  0.172440  0.172440  0.172440  0.172440  0.119390  0.048644  0.013272  0.013272  0.013272  0.013272 -0.004413 -0.004413  0.013272 -0.004413  0.013272  0.066330  0.137070  0.172440  0.190130  0.172440  0.190130  0.172440  0.154760  0.154760  0.137070  0.066330  0.048644  0.084016  0.066330  0.030958  0.013272  0.013272  0.048644  0.101700  0.101700  0.137070  0.172440  0.084016  0.030958  0.066330  0.154760  0.225500  0.225500  0.225500  0.225500  0.190130  0.225500  0.260870  0.260870  0.225500  0.154760  0.119390  0.137070  0.154760  0.172440  0.172440  0.190130  0.190130  0.190130  0.137070  0.066330  0.119390  0.137070  0.084016  0.066330  0.048644  0.013272  0.013272  0.013272  0.030958  0.066330  0.048644 -0.004413 -0.004413  0.101700  0.243190  0.278560  0.260870  0.278560  0.260870  0.225500  0.207820  0.225500  0.243190  0.243190  0.225500  0.172440  0.190130  0.207820  0.190130  0.137070  0.084016  0.030958  0.013272 -0.022099 -0.022099  0.030958  0.030958  0.013272  0.048644  0.119390  0.190130  0.207820  0.190130  0.190130  0.137070  0.119390  0.101700  0.048644  0.048644  0.048644  0.048644  0.030958  0.030958  0.030958  0.048644  0.119390  0.154760  0.190130  0.190130  0.207820  0.190130  0.190130  0.172440  0.137070  0.084016  0.084016  0.101700  0.119390  0.119390  0.154760  0.190130  0.207820  0.190130  0.172440  0.225500  0.278560  0.243190  0.207820  0.172440  0.137070  0.137070  0.066330 -0.004413 -0.057471 -0.110530 -0.181270 -0.216640 -0.287390 -0.340440 -0.411190 -0.411190 -0.375810 -0.358130 -0.393500 -0.375810 -0.340440 -0.358130 -0.358130 -0.287390 -0.216640 -0.216640 -0.252010 -0.216640 -0.163590 -0.163590 -0.163590 -0.128210 -0.075157 -0.057471 -0.075157 -0.092842 -0.075157 -0.004413  0.030958  0.119390  0.154760  0.119390  0.137070  0.154760  0.207820  0.207820  0.172440  0.137070  0.066330 -0.022099 -0.110530 -0.163590 -0.198960 -0.252010 -0.340440 -0.375810 -0.393500 -0.411190 -0.375810 -0.340440 -0.358130 -0.375810 -0.375810 -0.411190 -0.411190 -0.375810 -0.305070 -0.198960 -0.110530 -0.057471 -0.092842 -0.110530 -0.092842 -0.022099  0.030958  0.084016  0.066330  0.013272 -0.004413 -0.110530 -0.198960 -0.234330 -0.216640 -0.216640 -0.216640 -0.234330 -0.181270 -0.128210 -0.075157 -0.075157 -0.039785  0.013272 -0.004413 -0.004413  0.013272  0.013272  0.013272  0.048644  0.048644  0.013272 -0.022099 -0.057471 -0.057471 -0.057471 -0.039785  0.013272  0.013272  0.066330  0.084016  0.048644  0.066330  0.101700  0.084016  0.066330  0.013272  0.013272  0.030958  0.066330  0.137070  0.225500  0.278560  0.225500  0.172440  0.137070  0.172440  0.243190  0.260870  0.225500  0.225500  0.260870  0.243190  0.207820  0.207820  0.225500  0.225500  0.190130  0.137070  0.048644  0.084016  0.119390  0.137070  0.172440  0.225500  0.225500  0.207820  0.243190  0.260870  0.278560  0.243190  0.190130  0.154760  0.137070  0.190130  0.243190  0.260870  0.225500  0.172440  0.154760  0.190130  0.190130  0.190130  0.190130  0.207820  0.172440  0.154760  0.137070  0.137070  0.172440  0.207820  0.172440  0.084016 -0.004413 -0.092842 -0.269700 -0.534990 -0.747220 -0.994820 -1.242400 -1.419300 -1.525400 -1.666900 -1.896800 -2.126700 -2.392000 -2.639600 -2.851800 -2.975600 -3.028700 -3.081700 -3.064100 -2.957900 -2.745700 -2.586500 -2.515800 -2.515800 -2.604200 -2.781100 -2.869500 -2.851800 -2.869500 -2.975600 -3.240900 -3.576900 -3.983700 -4.443500 -4.797300 -4.974100 -4.726500 -3.895300 -2.816500 
Shapelet   5   0.458390  0.461240  0.463010  0.453830  0.441480  0.438910  0.439840  0.428690  0.414680  0.417210  0.432160  0.440520  0.439240  0.441840  0.442910  0.426850  0.399950  0.374830  0.353320  0.339990  0.346290  0.359910  0.354510  0.334900  0.321730  0.319510  0.320130  0.319790  0.320060  0.319820  0.320080  0.320250  0.318850  0.320670  0.330600  0.347230  0.358930  0.360300  0.360320  0.361850  0.357060  0.344020  0.335580  0.340040  0.351590  0.362640  0.363530  0.352060  0.340720  0.339380  0.339190  0.327220  0.314260  0.317960  0.333280  0.339880  0.328420  0.314860  0.317240  0.331450  0.340470  0.339950  0.340670  0.341070  0.336760  0.340390  0.354460  0.359370  0.346160  0.330910  0.320680  0.314750  0.323850  0.338750  0.334860  0.320940  0.325070  0.343380  0.355430  0.365520  0.378360  0.382840  0.379890  0.379610  0.378520  0.365230  0.346820  0.340210  0.341820  0.336840  0.323670  0.316520  0.320090  0.322140  0.318890  0.318390  0.322260  0.320670  0.316040  0.322080  0.325520  0.309500  0.298870  0.318650  0.342280  0.342730  0.339730  0.341270  0.330260  0.320060  0.330520  0.343410  0.341490  0.339170  0.340210  0.330420  0.315430  0.304070  0.291810  0.280520  0.277840  0.280480  0.280190  0.280210  0.280510  0.271790  0.257680  0.254550  0.267430  0.279240  0.279210  0.280800  0.292670  0.302890  0.301040  0.302030  0.321330  0.340190  0.335830  0.321890  0.320960  0.320390  0.306680  0.299690  0.302000  0.292000  0.280180  0.289750  0.300580  0.288210  0.274810  0.278840  0.282930  0.279440  0.278460  0.281090  0.280890  0.274000  0.258570  0.242680  0.240850  0.242520  0.226280  0.199720  0.183440  0.178920  0.178340  0.185530  0.199300  0.204300  0.197890  0.196020  0.207450  0.219250  0.220660  0.220090  0.221370  0.215630  0.202270  0.195130  0.201080  0.212520  0.225720  0.238200  0.237950  0.218930  0.200060  0.203930  0.218280  0.215520  0.200280  0.196290  0.200320  0.189090  0.166420  0.159310  0.172000  0.179890  0.167880  0.153930  0.157970  0.167130  0.156800  0.130650  0.115290  0.118240  0.122560  0.119460  0.117550  0.121470  0.121390  0.116000  0.119970  0.133810  0.140560  0.139400  0.142050  0.140430  0.126790  0.119390  0.121550  0.113170  0.100490  0.100740  0.098082  0.083787  0.080163  0.081703  0.061970  0.037938  0.036071  0.040647  0.039053  0.046674  0.060127  0.061238  0.060939  0.074341  0.086172  0.080115  0.065864  0.058662  0.058996  0.060395  0.059873  0.058658  0.060703  0.070949  0.092359  0.117010  0.122190  0.094046  0.054298  0.032524  0.022685  0.007414 -0.000201  0.011444  0.022250  0.020579  0.019815  0.019626  0.008562 -0.002735 -0.001531 -0.002362 -0.019088 -0.037668 -0.038962 -0.026492 -0.013313 -0.001741  0.005588 -0.003531 -0.028121 -0.049398 -0.059284 -0.063409 -0.059439 -0.046472 -0.038556 -0.040291 -0.035594 -0.019717 -0.013111 -0.026527 -0.039608 -0.038324 -0.040176 -0.054618 -0.059589 -0.046024 -0.036617 -0.040016 -0.041190 -0.041043 -0.052118 -0.069181 -0.079611 -0.082416 -0.079685 -0.069503 -0.050962 -0.026202 -0.004876 -0.000761 -0.012659 -0.023150 -0.021983 -0.017929 -0.020436 -0.022877 -0.018709 -0.018071 -0.024841 -0.021228 -0.004767 -0.001902 -0.015982 -0.021297 -0.019760 -0.031402 -0.040177 -0.019160  0.016986  0.038015  0.041445  0.039462  0.038167  0.042778  0.055930  0.066060  0.059137  0.044003  0.039831  0.041443  0.031667  0.019774  0.026909  0.043680  0.044219  0.033668  0.038218  0.054986  0.059145  0.056028  0.068019  0.079978  0.069450  0.059716  0.071844  0.082518  0.079827  0.085856  0.100680  0.103180  0.098128  0.098893  0.100650  0.099813  0.100060  0.099138  0.098104  0.105980  0.119200  0.123390  0.118360  0.116990  0.125550  0.138210  0.150370  0.161560  0.164100  0.153160  0.141000  0.139200  0.139670  0.137420  0.144260  0.157590  0.161110  0.160030  0.169580  0.185030  0.196340  0.207880  0.219790  0.223150  0.217740  0.206150  0.190340  0.180250  0.180670 


; cmd = /home/grad00/soren885/capstone/ShapeletResearch/Execs/FastShapelet /home/grad00/soren885/capstone/Shapelet_Datasets/UCR_Master/CinC_ECG_torso_TRAIN 4 40 820 1 2 10 euclidean 1 0 10 ./replications/CinC_ECG_torso/CinC_ECG_torso_euclidean_unnormed_CID_REP08_tree.txt ./replications/CinC_ECG_torso/CinC_ECG_torso_euclidean_unnormed_CID_REP08_time.txt
; time =>  706.925  12.573  64.176   4.619 620.156 
; command = /home/grad00/soren885/capstone/ShapeletResearch/Execs/Classify /home/grad00/soren885/capstone/Shapelet_Datasets/UCR_Master/CinC_ECG_torso_TEST 4 1380 euclidean 1 0 ./replications/CinC_ECG_torso/CinC_ECG_torso_euclidean_unnormed_CID_REP08_tree.txt ./replications/CinC_ECG_torso/CinC_ECG_torso_euclidean_unnormed_CID_REP08_acc.txt
; accuracy= 63.551   Correct:877 , Wrong: 503


;   == Confusion Matrix ==
;   real |   3    2    4    1 
;   -----+------------------------
;   p  3 | 233   75   13  130 
;   p  2 |  92  195    7   32 
;   p  4 |  17   70  325   64 
;   p  1 |   1    2    0  124 

