;Shapelet Tree 

;random seed:1503523566, rand()=1690513493, rand()=913190430
;command = /home/grad00/soren885/capstone/ShapeletResearch/Execs/FastShapelet /home/grad00/soren885/capstone/Shapelet_Datasets/UCR_Master/CinC_ECG_torso_TRAIN 4 40 820 1 2 10 correlation 0 0 10 ./replications/CinC_ECG_torso/CinC_ECG_torso_correlation_unnormed_NOCID_REP08_tree.txt ./replications/CinC_ECG_torso/CinC_ECG_torso_correlation_unnormed_NOCID_REP08_time.txt 

;Local Class:   0  1  2  3 
;Real  Class:   1  3  4  2 

;Node ID class   obj  pos  len  dist_th 
TreeSize: 14 
NonL  1    --     25   32  745   0.5859 ==>   0  12   0  12  /   5   0  10   1 
NonL  2    --      1   62  775   0.4891 ==>   0  11   0   0  /   0   1   0  12 
NonL  3    --      5  712    5   0.0223 ==>   5   0   0   1  /   0   0  10   0 
Leaf  4     3    
Leaf  5     2    
NonL  6    --      2    1  745   0.2760 ==>   0   0   0   1  /   5   0   0   0 
Leaf  7     4    
Leaf 12     2    
Leaf 13     1    

;Shapelet id   <data>
Shapelet   1   1.132500  1.087300  1.189900  1.226300  0.917170  0.729260  0.707170  0.615700  0.580980  0.592280  0.610810  0.635030  0.640130  0.633920  0.660210  0.674710  0.614440  0.546630  0.545020  0.554080  0.529150  0.531320  0.590270  0.639930  0.631450  0.592730  0.565370  0.553710  0.548870  0.561010  0.597580  0.635140  0.642100  0.613160  0.573030  0.553580  0.557950  0.555340  0.543550  0.560810  0.600830  0.614830  0.611200  0.628110  0.641450  0.622760  0.611940  0.634930  0.652900  0.639940  0.608110  0.566930  0.530930  0.520860  0.524780  0.522090  0.530270  0.566490  0.605200  0.613290  0.586040  0.544430  0.522510  0.534830  0.552940  0.553110  0.555740  0.574470  0.586770  0.583950  0.583480  0.582510  0.566280  0.548380  0.550770  0.560260  0.553550  0.545560  0.562350  0.582820  0.573550  0.554360  0.553560  0.551640  0.533490  0.511640  0.472360  0.409760  0.376890  0.395830  0.413380  0.408320  0.416510  0.440150  0.456410  0.478530  0.516110  0.543690  0.554690  0.571350  0.586290  0.566910  0.526640  0.524720  0.576070  0.622090  0.620370  0.603320  0.611130  0.623670  0.604970  0.567600  0.542600  0.527270  0.507530  0.494600  0.496080  0.490620  0.470270  0.460150  0.466980  0.457630  0.420650  0.402770  0.440760  0.496920  0.511070  0.484990  0.465910  0.475920  0.495160  0.490120  0.456020  0.433990  0.450650  0.466780  0.449020  0.438600  0.473300  0.511100  0.501640  0.463020  0.434320  0.417300  0.401620  0.402870  0.433610  0.467950  0.474200  0.461650  0.461860  0.479960  0.495540  0.498530  0.493200  0.477080  0.444650  0.409820  0.397770  0.413260  0.433880  0.433350  0.410990  0.404670  0.447460  0.508560  0.525130  0.500090  0.496010  0.528260  0.541550  0.506230  0.469310  0.474400  0.496030  0.499130  0.494990  0.496610  0.488090  0.467180  0.448640  0.433520  0.430720  0.451530  0.466750  0.450270  0.437080  0.455130  0.473040  0.468590  0.454010  0.434490  0.425760  0.454720  0.492770  0.480680  0.434600  0.422150  0.448750  0.466360  0.462680  0.466300  0.486090  0.495780  0.477710  0.449760  0.437340  0.438290  0.436280  0.434860  0.441120  0.439130  0.419500  0.407910  0.423600  0.448550  0.464280  0.470360  0.465530  0.460910  0.472590  0.473930  0.431100  0.377590  0.364730  0.390610  0.442460  0.512330  0.553610  0.539760  0.524130  0.543780  0.560900  0.554900  0.551690  0.554080  0.552010  0.560930  0.580610  0.587290  0.582750  0.582860  0.582450  0.581590  0.594490  0.613330  0.617890  0.607160  0.589040  0.574630  0.583090  0.607730  0.607980  0.571410  0.528980  0.497630  0.473280  0.467500  0.485920  0.502040  0.497170  0.489350  0.498180  0.516940  0.528780  0.526820  0.513300  0.493510  0.474170  0.463260  0.464190  0.475290  0.496330  0.528210  0.567930  0.604340  0.615850  0.585250  0.527720  0.490140  0.505850  0.552940  0.582080  0.583940  0.583180  0.571600  0.529880  0.496490  0.509600  0.524320  0.492900  0.449990  0.437100  0.437560  0.437430  0.452110  0.472680  0.471210  0.457500  0.466220  0.491740  0.490360  0.452390  0.423280  0.435090  0.461300  0.464580  0.447210  0.423390  0.385640  0.338460  0.321100  0.353050  0.400480  0.432370  0.452310  0.467790  0.484040  0.502540  0.501770  0.475130  0.466720  0.490450  0.489500  0.449660  0.427250  0.436650  0.441710  0.434940  0.420200  0.385400  0.351250  0.355530  0.384330  0.402390  0.415450  0.434730  0.434610  0.403410  0.389870  0.432870  0.488010  0.501180  0.495570  0.500040  0.487650  0.465540  0.489670  0.553540  0.600030  0.613970  0.599170  0.548770  0.497860  0.489300  0.495500  0.478290  0.454570  0.439440  0.421160  0.406710  0.407710  0.403970  0.383430  0.369150  0.381020  0.414460  0.450910  0.467530  0.454710  0.436940  0.446190  0.477670  0.497230  0.481200  0.439130  0.398100  0.375060  0.374950  0.384240  0.380470  0.362340  0.347350  0.333150  0.305780  0.290600  0.300610  0.286070  0.219530  0.142320  0.076040 -0.007233 -0.092758 -0.125980 -0.108070 -0.089167 -0.095089 -0.117620 -0.150510 -0.185200 -0.188770 -0.144470 -0.091622 -0.067835 -0.056103 -0.038289 -0.019474  0.019480  0.083608  0.117640  0.111340  0.132830  0.191160  0.241000  0.298210  0.387630  0.463050  0.509460  0.575240  0.642830  0.654480  0.639280  0.673340  0.758620  0.842990  0.902370  0.944120  0.979590  1.003400  0.995380  0.952920  0.891000  0.808150  0.704790  0.621580  0.590880  0.581380  0.561190  0.554390  0.575470  0.606670  0.644030  0.682950  0.707010  0.738650  0.815580  0.903870  0.946910  0.972100  1.025100  1.083900  1.108500  1.108000  1.110000  1.112500  1.097600  1.057900  1.005000  0.955410  0.917320  0.897420  0.900430  0.926830  0.966340  0.989870  0.991600  1.009500  1.050400  1.049600  0.991570  0.957770  0.964260  0.944420  0.905520  0.907760  0.944080  0.991470  1.072400  1.160300  1.193500  1.198800  1.232600  1.270400  1.262100  1.206600  1.127500  1.052500  1.000700  0.949580  0.883760  0.845210  0.847840  0.836810  0.796240  0.790710  0.845410  0.896840  0.900960  0.881860  0.862800  0.821770  0.748610  0.690520  0.685780  0.724580  0.779930  0.818330  0.813650  0.801880  0.843810  0.900490  0.881950  0.810740  0.778800  0.797950  0.815970  0.810710  0.786870  0.742070  0.674820  0.586730  0.501480  0.466270  0.492880  0.533370  0.549470  0.565070  0.606600  0.651530  0.673260  0.686740  0.718290  0.754150  0.764310  0.757890  0.768830  0.804890  0.839730  0.859520  0.876400  0.895520  0.907400  0.907170  0.891740  0.846800  0.774860  0.715180  0.697460  0.708560  0.727440  0.756120  0.797480  0.834410  0.856140  0.872800  0.884980  0.870100  0.819270  0.762750  0.732030  0.726580  0.729230  0.719080  0.681380  0.626630  0.587540  0.583440  0.601660  0.613860  0.596630  0.554980  0.525290  0.532580  0.561720  0.581440  0.579100  0.557520  0.522590  0.490730  0.485450  0.511990  0.548350  0.572450  0.584220  0.587190  0.577140  0.558630  0.541580  0.523650  0.503690  0.493870  0.495750  0.489520  0.466690  0.444210  0.436200  0.436310  0.441830  0.463910  0.491490  0.493010  0.473520  0.460700  0.442190  0.402110  0.377870  0.395100  0.413770  0.409080  0.414350  0.439060  0.434890  0.385800  0.350230  0.361820  0.378900  0.386770  0.424770  0.467290  0.435670  0.352960  0.312540  0.327070  0.359970  0.410030  0.462480  0.469750  0.426780  0.373100  0.327890  0.294580  0.292410  0.325250  0.352200  0.340160  0.320510  0.331480  0.350050  0.349150  0.353720  0.373860  0.380540  0.378610  0.405680  0.447460  0.449250  0.414890  0.406090  0.448950  0.508270  0.558070  0.616580  0.689020  0.750880  0.793390  0.827580  0.858670  0.873530  0.875000  0.874900  0.860740  0.834760  0.833700  0.893120  0.994450  1.127700  1.325900  1.539900  1.697600  1.831700  2.000700  2.172400  2.320700  2.505900  2.720700  2.901600  3.070900  3.263200  3.443800  3.593400  3.744100  3.865300  3.886700  3.820300  3.733200  3.627100  3.464900  3.280300  3.142400  3.065400  2.961400  2.777300  2.546400  2.282500  1.946600  1.504000  1.031300  0.577500  0.083059 -0.510050 -1.194700 -1.929700 -2.683500 -3.374400 -3.943800 -4.422900 -4.829900 -5.132100 -5.298000 -5.345800 -5.270000 -5.033200 -4.681600 -4.347700 -4.097900 -3.863600 -3.600200 -3.347900 -3.136000 -2.966500 -2.872400 -2.787700 -2.561200 -2.158700 -1.680400 -1.229900 -0.821150 -0.475200 -0.194690  0.059111  0.251590  0.289300  0.095377 -0.271190 -0.704920 -1.164100 -1.579500 -1.864500 -1.994700 -2.033400 -2.017200 -1.952000 -1.931000 -2.003300 -2.093400 
Shapelet   2  -0.232180 -0.211180 -0.196620 -0.203160 -0.209370 -0.188120 -0.172590 -0.191770 -0.208440 -0.202180 -0.199870 -0.204870 -0.202350 -0.200670 -0.204570 -0.202310 -0.200690 -0.201660 -0.168530 -0.103040 -0.069901 -0.083720 -0.104240 -0.124100 -0.143380 -0.145070 -0.139480 -0.142760 -0.143970 -0.139820 -0.142910 -0.145640 -0.131840 -0.110030 -0.090567 -0.067201 -0.051447 -0.068412 -0.101570 -0.111980 -0.109660 -0.117530 -0.109580 -0.085636 -0.084102 -0.079184 -0.037949 -0.003030  0.010407  0.031941  0.038285  0.001695 -0.041674 -0.065101 -0.084809 -0.089890 -0.055469 -0.018125 -0.017480 -0.026370 -0.019706 -0.000719  0.027487  0.037829  0.017149 -0.006478 -0.024476 -0.027803 -0.002347  0.006710 -0.017227 -0.015379  0.013591  0.032936  0.054809  0.069000  0.048427  0.019925  0.006859  0.005711  0.020692  0.043038  0.063176  0.077875  0.062099  0.019300 -0.009418 -0.025740 -0.047848 -0.048417 -0.011571  0.030157  0.055540  0.071744  0.072563  0.053320  0.035039  0.015997 -0.014187 -0.018770  0.004632  0.009324  0.011144  0.033229  0.051885  0.076599  0.099302  0.083463  0.067674  0.070985  0.049873  0.042566  0.088738  0.104980  0.050942  0.009950  0.013073  0.001981 -0.020970 -0.008518  0.011720  0.008740  0.019048  0.044922  0.042925  0.019227  0.006393  0.007090  0.020194  0.047632  0.067587  0.068170  0.070601  0.071209  0.050097  0.039350  0.063741  0.079437  0.060292  0.040082  0.037799  0.038439  0.038226  0.041258  0.034201  0.012253 -0.009392 -0.028685 -0.049414 -0.056942 -0.048348 -0.049628 -0.071078 -0.082348 -0.057247 -0.024087 -0.027917 -0.050551 -0.042276 -0.009249  0.008508 -0.004858 -0.029350 -0.024419 -0.007570 -0.040624 -0.081491 -0.052661 -0.010299 -0.019320 -0.029780 -0.015619 -0.019647 -0.042353 -0.056793 -0.078943 -0.109110 -0.105050 -0.082577 -0.096401 -0.115610 -0.085850 -0.049273 -0.065229 -0.109520 -0.123590 -0.099740 -0.082241 -0.083745 -0.078494 -0.080959 -0.103900 -0.112840 -0.111860 -0.118070 -0.099842 -0.081550 -0.117640 -0.149170 -0.114410 -0.078280 -0.093772 -0.112190 -0.095139 -0.075117 -0.081500 -0.101330 -0.121540 -0.141870 -0.161480 -0.182990 -0.202430 -0.207340 -0.194220 -0.172720 -0.165000 -0.184690 -0.202660 -0.186600 -0.163490 -0.172550 -0.183060 -0.151230 -0.112000 -0.108900 -0.108990 -0.081529 -0.055793 -0.051246 -0.051835 -0.050837 -0.053118 -0.051706 -0.047533 -0.065500 -0.114040 -0.161700 -0.171670 -0.140760 -0.112860 -0.116400 -0.111350 -0.100700 -0.139520 -0.172400 -0.134700 -0.094103 -0.081141 -0.059228 -0.049658 -0.051575 -0.045955 -0.072491 -0.113990 -0.115310 -0.117190 -0.143920 -0.132990 -0.079119 -0.051615 -0.070156 -0.095683 -0.113930 -0.135790 -0.141590 -0.107440 -0.061295 -0.053062 -0.086042 -0.111630 -0.107010 -0.115040 -0.156950 -0.184280 -0.169430 -0.146340 -0.140730 -0.142430 -0.142290 -0.142400 -0.142180 -0.141660 -0.143880 -0.141080 -0.121920 -0.095307 -0.081023 -0.080940 -0.082768 -0.081725 -0.081408 -0.082617 -0.081668 -0.081132 -0.083456 -0.081181 -0.079300 -0.092734 -0.116160 -0.137730 -0.140980 -0.102860 -0.055971 -0.067921 -0.121040 -0.143300 -0.138640 -0.143080 -0.125760 -0.082183 -0.089238 -0.136960 -0.124740 -0.074234 -0.074190 -0.093661 -0.075842 -0.052663 -0.061291 -0.087618 -0.108410 -0.116440 -0.108950 -0.087770 -0.073263 -0.088452 -0.130930 -0.157730 -0.133480 -0.109610 -0.132050 -0.139250 -0.114320 -0.124210 -0.143120 -0.118950 -0.111960 -0.154070 -0.175220 -0.154940 -0.139750 -0.121280 -0.075268 -0.050624 -0.074419 -0.100230 -0.117380 -0.139470 -0.136630 -0.100190 -0.058904 -0.039190 -0.062459 -0.105220 -0.128610 -0.149580 -0.171540 -0.160410 -0.137650 -0.140670 -0.136650 -0.099545 -0.080070 -0.100110 -0.114920 -0.134850 -0.174570 -0.157840 -0.091108 -0.062078 -0.042853 -0.020176 -0.054071 -0.084944 -0.057179 -0.043545 -0.054491 -0.051741 -0.065210 -0.085325 -0.059155 -0.020890 -0.029665 -0.051134 -0.048171 -0.059588 -0.081632 -0.067226 -0.048421 -0.052130 -0.037807 -0.016330 -0.020385 -0.026104 -0.017094  0.004438  0.042594  0.083283  0.123300  0.180570  0.240330  0.276610  0.310750  0.357950  0.372080  0.344990  0.349020  0.396030  0.424770  0.435500  0.458370  0.480640  0.498380  0.519340  0.538610  0.560990  0.580540  0.583890  0.576630  0.553400  0.536260  0.572850  0.611450  0.579500  0.538390  0.549620  0.573620  0.584460  0.582200  0.559500  0.554710  0.608000  0.679740  0.704650  0.673840  0.627680  0.603840  0.610940  0.632640  0.643850  0.641780  0.653330  0.691660  0.731600  0.752620  0.774180  0.821820  0.885290  0.929790  0.943370  0.956910  0.990000  1.003800  0.980220  0.979370  1.034200  1.086400  1.087400  1.063900  1.058500  1.067200  1.063900  1.058000  1.073900  1.094500  1.094500  1.096700  1.125500  1.165700  1.203400  1.246600  1.290500  1.310700  1.304900  1.301000  1.308000  1.304700  1.296800  1.328200  1.399500  1.433800  1.402900  1.397600  1.458000  1.506200  1.516600  1.519000  1.502600  1.486000  1.504400  1.521100  1.516000  1.531000  1.563400  1.577000  1.591000  1.632500  1.668800  1.669000  1.668900  1.700900  1.725900  1.722000  1.728800  1.734000  1.711400  1.733800  1.803400  1.811000  1.787000  1.810600  1.800100  1.715500  1.648000  1.623400  1.603600  1.582900  1.563200  1.543600  1.525000  1.488100  1.412800  1.328900  1.261200  1.167200  1.057900  1.012400  0.998960  0.940190  0.859520  0.778010  0.692890  0.648430  0.639010  0.600570  0.544410  0.518230  0.501760  0.455150  0.387890  0.327950  0.263190  0.170260  0.085705  0.041499 -0.001715 -0.046188 -0.050926 -0.056652 -0.099636 -0.130420 -0.147780 -0.190210 -0.216660 -0.197190 -0.193890 -0.234680 -0.267860 -0.285730 -0.314870 -0.320300 -0.295880 -0.302260 -0.327230 -0.325530 -0.320900 -0.323170 -0.321500 -0.336350 -0.356600 -0.355230 -0.350620 -0.354170 -0.353860 -0.352310 -0.353530 -0.353420 -0.352930 -0.353260 -0.353130 -0.354300 -0.350750 -0.329120 -0.311300 -0.331950 -0.354210 -0.335530 -0.324220 -0.348420 -0.358100 -0.353660 -0.376850 -0.396480 -0.373400 -0.352400 -0.369650 -0.385210 -0.382640 -0.397820 -0.415690 -0.391370 -0.355200 -0.358600 -0.380960 -0.385690 -0.383040 -0.384200 -0.370460 -0.346360 -0.349370 -0.375350 -0.382770 -0.381630 -0.401340 -0.415330 -0.413000 -0.427820 -0.449060 -0.446080 -0.426780 -0.407780 -0.410600 -0.436870 -0.439340 -0.415430 -0.422810 -0.452930 -0.447400 -0.419330 -0.414740 -0.415290 -0.393370 -0.384300 -0.410200 -0.425730 -0.398580 -0.356850 -0.341810 -0.367170 -0.410080 -0.426270 -0.397650 -0.356260 -0.343930 -0.362550 -0.382460 -0.387120 -0.377400 -0.355290 -0.343660 -0.365060 -0.383730 -0.366000 -0.348850 -0.353020 -0.353970 -0.353560 -0.353720 -0.348830 -0.361900 -0.382970 -0.383930 -0.385180 -0.384320 -0.362230 -0.351890 -0.353810 -0.334170 -0.319580 -0.323350 -0.307310 -0.284920 -0.292560 -0.300920 -0.280640 -0.263090 -0.265080 -0.254040 -0.233000 -0.244310 -0.278740 -0.293130 -0.290360 -0.299310 -0.323120 -0.344550 -0.361480 -0.383620 -0.378580 -0.315580 -0.262910 -0.289300 -0.360750 -0.445030 -0.532430 -0.585170 -0.625950 -0.703340 -0.781440 -0.837390 -0.897090 -0.953810 -1.019500 -1.118000 -1.215200 -1.291100 -1.354800 -1.400800 -1.474200 -1.627000 -1.800900 -1.927100 -2.027100 -2.123700 -2.196300 -2.237100 -2.278800 -2.348700 -2.401800 -2.391300 -2.374200 -2.382500 -2.336800 -2.212300 -2.056500 -1.869800 -1.663800 -1.479600 -1.313400 -1.153400 -0.982080 -0.753340 -0.477670 -0.215750  0.049561  0.376280  0.726320  1.019500  1.273100  1.550100  1.843200  2.120500  2.383900  2.616700  2.805500  3.029300  3.361700  3.733100  4.056200  4.363500  4.698100  5.023800  5.310500  5.559000  5.746500  5.868400  5.961300  6.010900  5.963900  5.835100  5.656400  5.434600  5.226400  5.113400  5.110300  5.177500  5.246000  5.228800  5.109700  4.996800  5.002000  5.135300  5.372100  5.683300  5.959500 
Shapelet   3  -0.228490 -0.270850 -0.292020 -0.270850 -0.292020 
Shapelet   6   0.162260  0.234280  0.251040  0.258570  0.256370  0.266100  0.281310  0.283200  0.282470  0.285390  0.270140  0.238020  0.223970  0.237630  0.254190  0.259240  0.258370  0.257600  0.258200  0.258580  0.257550  0.257590  0.259280  0.257990  0.255350  0.261640  0.277000  0.287110  0.282330  0.268530  0.254280  0.240000  0.228510  0.232590  0.256820  0.288290  0.316880  0.341590  0.353520  0.344770  0.327310  0.313330  0.298970  0.284640  0.274280  0.256370  0.225940  0.205480  0.207750  0.214080  0.210460  0.206820  0.213810  0.228790  0.239830  0.235220  0.218980  0.209310  0.209970  0.209660  0.209660  0.220860  0.236330  0.238420  0.230390  0.231890  0.246800  0.258790  0.259580  0.257610  0.258080  0.257360  0.258270  0.269490  0.288630  0.303130  0.307860  0.305950  0.295740  0.276120  0.260180  0.258850  0.258840  0.245950  0.232450  0.232010  0.235780  0.234650  0.233610  0.234280  0.233400  0.237300  0.253090  0.272530  0.282180  0.282320  0.282110  0.282400  0.280600  0.281920  0.285390  0.278190  0.262480  0.255470  0.257940  0.258310  0.258470  0.259920  0.252390  0.236480  0.222240  0.207670  0.191600  0.185290  0.186970  0.179540  0.160770  0.143920  0.138750  0.154010  0.192760  0.235400  0.256590  0.257120  0.256190  0.265410  0.281390  0.288740  0.277460  0.261830  0.254290  0.237380  0.203690  0.185980  0.200690  0.216180  0.211980  0.206940  0.211140  0.212410  0.208920  0.209550  0.212870  0.209940  0.196890  0.181640  0.181590  0.204390  0.234200  0.252700  0.259290  0.259330  0.255860  0.257530  0.270560  0.284440  0.285810  0.274850  0.259940  0.252080  0.260690  0.277650  0.280380  0.262830  0.242780  0.233900  0.233380  0.234940  0.235190  0.228110  0.209780  0.190620  0.188250  0.203640  0.221950  0.233980  0.237490  0.232480  0.230620  0.243150  0.257330  0.259000  0.258500  0.260730  0.251280  0.235600  0.239120  0.261270  0.278320  0.283050  0.282790  0.275280  0.256730  0.238790  0.234050  0.235360  0.227450  0.210530  0.195270  0.182630  0.167960  0.157730  0.161950  0.176310  0.189470  0.202690  0.220610  0.233580  0.233780  0.235470  0.249820  0.262870  0.260410  0.246900  0.233230  0.229800  0.238420  0.238770  0.214550  0.186050  0.180030  0.191160  0.205020  0.221610  0.234130  0.226250  0.205140  0.202090  0.228200  0.256280  0.262570  0.257040  0.256010  0.262200  0.278070  0.299380  0.305040  0.290140  0.278920  0.281110  0.281900  0.282290  0.295790  0.308010  0.291940  0.261800  0.258030  0.277600  0.278940  0.261110  0.262790  0.281090  0.277310  0.251800  0.235110  0.237950  0.254980  0.275270  0.281760  0.278730  0.289080  0.304780  0.298680  0.280550  0.277620  0.284140  0.282730  0.285030  0.306540  0.328550  0.325610  0.309140  0.304790  0.305940  0.293930  0.279000  0.279000  0.284840  0.282530  0.279010  0.283080  0.285270  0.275310  0.260190  0.253550  0.259460  0.273400  0.287050  0.285860  0.262510  0.232650  0.215010  0.208930  0.208750  0.217620  0.234170  0.250120  0.260280  0.260480  0.254040  0.257160  0.273690  0.281800  0.267870  0.247460  0.235370  0.230250  0.236660  0.263330  0.296700  0.307500  0.292580  0.281900  0.294280  0.311050  0.309020  0.299040  0.306230  0.324970  0.327580  0.311290  0.300540  0.305400  0.310860  0.301150  0.272720  0.240480  0.232830  0.257900  0.285800  0.287650  0.276860  0.279950  0.288300  0.280070  0.272860  0.295430  0.325830  0.330680  0.330080  0.346550  0.352040  0.334250  0.330720  0.353240  0.363830  0.346870  0.331510  0.327520  0.308440  0.265180  0.227780  0.214410  0.201810  0.169000  0.125070  0.085443  0.055964  0.032921  0.003867 -0.032666 -0.052043 -0.040447 -0.020313 -0.007710  0.011445  0.044596  0.068250  0.063109  0.046970  0.043065  0.043890  0.033096  0.015476  0.001708 -0.011829 -0.026258 -0.038720 -0.055112 -0.071389 -0.075408 -0.074381 -0.085463 -0.100490 -0.101160 -0.100030 -0.116620 -0.140410 -0.146520 -0.132230 -0.119780 -0.121020 -0.125520 -0.123120 -0.119420 -0.126210 -0.141300 -0.151700 -0.147740 -0.133980 -0.119060 -0.093020 -0.052745 -0.028221 -0.037593 -0.052790 -0.051520 -0.055330 -0.072219 -0.079829 -0.074599 -0.063366 -0.040085 -0.010327  0.007711  0.020304  0.038147  0.044096  0.042209  0.050227  0.044823  0.004218 -0.034583 -0.034758 -0.017067 -0.004729 -0.004765 -0.037034 -0.095798 -0.145430 -0.185680 -0.241680 -0.294960 -0.313410 -0.313070 -0.314100 -0.306440 -0.288760 -0.274230 -0.258980 -0.229780 -0.194620 -0.170880 -0.157440 -0.140510 -0.112130 -0.078633 -0.052936 -0.044747 -0.054163 -0.058007 -0.036524 -0.006886  0.002869 -0.005239 -0.007948  0.004453  0.035198  0.074563  0.091515  0.078736  0.062311  0.050013  0.019062 -0.028904 -0.063562 -0.079351 -0.092596 -0.114240 -0.145450 -0.170530 -0.165890 -0.135620 -0.110300 -0.099884 -0.096737 -0.099786 -0.090854 -0.054647 -0.027967 -0.041117 -0.050476 -0.021573  0.002973 -0.002158 -0.000142  0.021233  0.037669  0.047985  0.062737  0.076434  0.091129  0.117490  0.147980  0.175830  0.202350  0.211160  0.188200  0.157300  0.153870  0.177910  0.206530  0.232960  0.263420  0.294260  0.311380  0.308370  0.293910  0.281090  0.278000  0.286700  0.301890  0.310590  0.305550  0.300860  0.309340  0.310930  0.291340  0.281510  0.305700  0.335780  0.348150  0.365350  0.397440  0.420110  0.424980  0.424860  0.424120  0.423990  0.433300  0.450920  0.465770  0.477420  0.491540  0.514220  0.545800  0.567730  0.563240  0.547380  0.538340  0.520500  0.486840  0.471780  0.488400  0.501930  0.496750  0.501600  0.525580  0.530820  0.501070  0.474040  0.472840  0.470780  0.454140  0.447940  0.450030  0.436180  0.424800  0.438010  0.451970  0.449510  0.449420  0.448440  0.423870  0.391120  0.376970  0.381730  0.399880  0.428440  0.454130  0.467710  0.479930  0.494950  0.500500  0.494890  0.492500  0.502940  0.518080  0.523760  0.519380  0.517080  0.523170  0.523260  0.502470  0.470840  0.450930  0.449450  0.450890  0.436180  0.401540  0.365660  0.351610  0.353110  0.351740  0.352760  0.365510  0.379940  0.392480  0.412440  0.425180  0.412820  0.400580  0.413610  0.431170  0.427830  0.412700  0.399930  0.386380  0.371010  0.357180  0.343300  0.329320  0.324030  0.334350  0.349810  0.355620  0.353530  0.352050  0.354600  0.367380  0.391330  0.401970  0.379980  0.347990  0.332020  0.328250  0.328870  0.332670  0.328140  0.312200  0.304100  0.306160  0.298120  0.281110  0.276040  0.286820  0.301210  0.314940  0.329380  0.343260  0.357810  0.372590  0.381380  0.378060  0.364570  0.350970  0.349170  0.361260  0.375800  0.380530  0.376460  0.374660  0.382660  0.398440  0.402780  0.373160  0.317090  0.262240  0.222050  0.182170  0.138170  0.106890  0.085124  0.058493  0.017807 -0.025510 -0.069920 -0.145990 -0.256730 -0.386250 -0.512690 -0.634720 -0.768450 -0.916270 -1.096100 -1.297300 -1.510400 -1.749800 -2.010800 -2.291700 -2.572700 -2.861300 -3.165300 -3.470200 -3.784000 -4.078400 -4.355900 -4.645200 -4.950900 -5.260700 -5.539900 -5.811400 -6.080600 -6.319300 -6.526800 -6.708000 -6.888600 -7.074600 -7.246600 -7.382200 -7.460500 -7.490700 -7.471900 -7.402200 -7.308200 -7.184900 -6.987100 -6.685600 -6.298600 -5.879900 -5.427400 -4.934700 -4.440400 -3.969300 -3.506400 -2.998300 -2.453600 -1.872600 -1.202800 -0.434340  0.394910  1.194000  1.893600  2.448500  2.842800  3.121300  3.302600  3.393700  3.395600  3.330000  3.238400  3.135900  3.053400  3.013700  3.002900  2.976000  2.904000  2.798300  2.673700  2.545500  2.425800  2.316200  2.202600  2.089500  1.967300 


; cmd = /home/grad00/soren885/capstone/ShapeletResearch/Execs/FastShapelet /home/grad00/soren885/capstone/Shapelet_Datasets/UCR_Master/CinC_ECG_torso_TRAIN 4 40 820 1 2 10 correlation 0 0 10 ./replications/CinC_ECG_torso/CinC_ECG_torso_correlation_unnormed_NOCID_REP08_tree.txt ./replications/CinC_ECG_torso/CinC_ECG_torso_correlation_unnormed_NOCID_REP08_time.txt
; time =>  1059.657  11.583  55.141   4.376 983.444 
; command = /home/grad00/soren885/capstone/ShapeletResearch/Execs/Classify /home/grad00/soren885/capstone/Shapelet_Datasets/UCR_Master/CinC_ECG_torso_TEST 4 1380 correlation 0 0 ./replications/CinC_ECG_torso/CinC_ECG_torso_correlation_unnormed_NOCID_REP08_tree.txt ./replications/CinC_ECG_torso/CinC_ECG_torso_correlation_unnormed_NOCID_REP08_acc.txt
; accuracy= 77.246   Correct:1066 , Wrong: 314


;   == Confusion Matrix ==
;   real |   3    2    4    1 
;   -----+------------------------
;   p  3 | 265   44    0    0 
;   p  2 |  67  264    0   11 
;   p  4 |   5    7  210   12 
;   p  1 |   6   27  135  327 

