;Shapelet Tree 

;random seed:1503503295, rand()=725602628, rand()=1824953600
;command = /home/grad00/soren885/capstone/ShapeletResearch/Execs/FastShapelet /home/grad00/soren885/capstone/Shapelet_Datasets/UCR_Master/CinC_ECG_torso_TRAIN 4 40 820 1 2 10 correlation 1 0 10 ./replications/CinC_ECG_torso/CinC_ECG_torso_correlation_unnormed_CID_REP03_tree.txt ./replications/CinC_ECG_torso/CinC_ECG_torso_correlation_unnormed_CID_REP03_time.txt 

;Local Class:   0  1  2  3 
;Real  Class:   1  3  4  2 

;Node ID class   obj  pos  len  dist_th 
TreeSize: 8 
NonL  1    --     25   41  735   0.6759 ==>   0  12   0  13  /   5   0  10   0 
NonL  2    --      0  533   61   0.0347 ==>   0  12   0   0  /   0   0   0  13 
NonL  3    --      2  761  315   0.3349 ==>   0   0  10   0  /   5   0   0   0 
Leaf  4     3    
Leaf  5     2    
Leaf  6     4    
Leaf  7     1    

;Shapelet id   <data>
Shapelet   1   0.592280  0.610810  0.635030  0.640130  0.633920  0.660210  0.674710  0.614440  0.546630  0.545020  0.554080  0.529150  0.531320  0.590270  0.639930  0.631450  0.592730  0.565370  0.553710  0.548870  0.561010  0.597580  0.635140  0.642100  0.613160  0.573030  0.553580  0.557950  0.555340  0.543550  0.560810  0.600830  0.614830  0.611200  0.628110  0.641450  0.622760  0.611940  0.634930  0.652900  0.639940  0.608110  0.566930  0.530930  0.520860  0.524780  0.522090  0.530270  0.566490  0.605200  0.613290  0.586040  0.544430  0.522510  0.534830  0.552940  0.553110  0.555740  0.574470  0.586770  0.583950  0.583480  0.582510  0.566280  0.548380  0.550770  0.560260  0.553550  0.545560  0.562350  0.582820  0.573550  0.554360  0.553560  0.551640  0.533490  0.511640  0.472360  0.409760  0.376890  0.395830  0.413380  0.408320  0.416510  0.440150  0.456410  0.478530  0.516110  0.543690  0.554690  0.571350  0.586290  0.566910  0.526640  0.524720  0.576070  0.622090  0.620370  0.603320  0.611130  0.623670  0.604970  0.567600  0.542600  0.527270  0.507530  0.494600  0.496080  0.490620  0.470270  0.460150  0.466980  0.457630  0.420650  0.402770  0.440760  0.496920  0.511070  0.484990  0.465910  0.475920  0.495160  0.490120  0.456020  0.433990  0.450650  0.466780  0.449020  0.438600  0.473300  0.511100  0.501640  0.463020  0.434320  0.417300  0.401620  0.402870  0.433610  0.467950  0.474200  0.461650  0.461860  0.479960  0.495540  0.498530  0.493200  0.477080  0.444650  0.409820  0.397770  0.413260  0.433880  0.433350  0.410990  0.404670  0.447460  0.508560  0.525130  0.500090  0.496010  0.528260  0.541550  0.506230  0.469310  0.474400  0.496030  0.499130  0.494990  0.496610  0.488090  0.467180  0.448640  0.433520  0.430720  0.451530  0.466750  0.450270  0.437080  0.455130  0.473040  0.468590  0.454010  0.434490  0.425760  0.454720  0.492770  0.480680  0.434600  0.422150  0.448750  0.466360  0.462680  0.466300  0.486090  0.495780  0.477710  0.449760  0.437340  0.438290  0.436280  0.434860  0.441120  0.439130  0.419500  0.407910  0.423600  0.448550  0.464280  0.470360  0.465530  0.460910  0.472590  0.473930  0.431100  0.377590  0.364730  0.390610  0.442460  0.512330  0.553610  0.539760  0.524130  0.543780  0.560900  0.554900  0.551690  0.554080  0.552010  0.560930  0.580610  0.587290  0.582750  0.582860  0.582450  0.581590  0.594490  0.613330  0.617890  0.607160  0.589040  0.574630  0.583090  0.607730  0.607980  0.571410  0.528980  0.497630  0.473280  0.467500  0.485920  0.502040  0.497170  0.489350  0.498180  0.516940  0.528780  0.526820  0.513300  0.493510  0.474170  0.463260  0.464190  0.475290  0.496330  0.528210  0.567930  0.604340  0.615850  0.585250  0.527720  0.490140  0.505850  0.552940  0.582080  0.583940  0.583180  0.571600  0.529880  0.496490  0.509600  0.524320  0.492900  0.449990  0.437100  0.437560  0.437430  0.452110  0.472680  0.471210  0.457500  0.466220  0.491740  0.490360  0.452390  0.423280  0.435090  0.461300  0.464580  0.447210  0.423390  0.385640  0.338460  0.321100  0.353050  0.400480  0.432370  0.452310  0.467790  0.484040  0.502540  0.501770  0.475130  0.466720  0.490450  0.489500  0.449660  0.427250  0.436650  0.441710  0.434940  0.420200  0.385400  0.351250  0.355530  0.384330  0.402390  0.415450  0.434730  0.434610  0.403410  0.389870  0.432870  0.488010  0.501180  0.495570  0.500040  0.487650  0.465540  0.489670  0.553540  0.600030  0.613970  0.599170  0.548770  0.497860  0.489300  0.495500  0.478290  0.454570  0.439440  0.421160  0.406710  0.407710  0.403970  0.383430  0.369150  0.381020  0.414460  0.450910  0.467530  0.454710  0.436940  0.446190  0.477670  0.497230  0.481200  0.439130  0.398100  0.375060  0.374950  0.384240  0.380470  0.362340  0.347350  0.333150  0.305780  0.290600  0.300610  0.286070  0.219530  0.142320  0.076040 -0.007233 -0.092758 -0.125980 -0.108070 -0.089167 -0.095089 -0.117620 -0.150510 -0.185200 -0.188770 -0.144470 -0.091622 -0.067835 -0.056103 -0.038289 -0.019474  0.019480  0.083608  0.117640  0.111340  0.132830  0.191160  0.241000  0.298210  0.387630  0.463050  0.509460  0.575240  0.642830  0.654480  0.639280  0.673340  0.758620  0.842990  0.902370  0.944120  0.979590  1.003400  0.995380  0.952920  0.891000  0.808150  0.704790  0.621580  0.590880  0.581380  0.561190  0.554390  0.575470  0.606670  0.644030  0.682950  0.707010  0.738650  0.815580  0.903870  0.946910  0.972100  1.025100  1.083900  1.108500  1.108000  1.110000  1.112500  1.097600  1.057900  1.005000  0.955410  0.917320  0.897420  0.900430  0.926830  0.966340  0.989870  0.991600  1.009500  1.050400  1.049600  0.991570  0.957770  0.964260  0.944420  0.905520  0.907760  0.944080  0.991470  1.072400  1.160300  1.193500  1.198800  1.232600  1.270400  1.262100  1.206600  1.127500  1.052500  1.000700  0.949580  0.883760  0.845210  0.847840  0.836810  0.796240  0.790710  0.845410  0.896840  0.900960  0.881860  0.862800  0.821770  0.748610  0.690520  0.685780  0.724580  0.779930  0.818330  0.813650  0.801880  0.843810  0.900490  0.881950  0.810740  0.778800  0.797950  0.815970  0.810710  0.786870  0.742070  0.674820  0.586730  0.501480  0.466270  0.492880  0.533370  0.549470  0.565070  0.606600  0.651530  0.673260  0.686740  0.718290  0.754150  0.764310  0.757890  0.768830  0.804890  0.839730  0.859520  0.876400  0.895520  0.907400  0.907170  0.891740  0.846800  0.774860  0.715180  0.697460  0.708560  0.727440  0.756120  0.797480  0.834410  0.856140  0.872800  0.884980  0.870100  0.819270  0.762750  0.732030  0.726580  0.729230  0.719080  0.681380  0.626630  0.587540  0.583440  0.601660  0.613860  0.596630  0.554980  0.525290  0.532580  0.561720  0.581440  0.579100  0.557520  0.522590  0.490730  0.485450  0.511990  0.548350  0.572450  0.584220  0.587190  0.577140  0.558630  0.541580  0.523650  0.503690  0.493870  0.495750  0.489520  0.466690  0.444210  0.436200  0.436310  0.441830  0.463910  0.491490  0.493010  0.473520  0.460700  0.442190  0.402110  0.377870  0.395100  0.413770  0.409080  0.414350  0.439060  0.434890  0.385800  0.350230  0.361820  0.378900  0.386770  0.424770  0.467290  0.435670  0.352960  0.312540  0.327070  0.359970  0.410030  0.462480  0.469750  0.426780  0.373100  0.327890  0.294580  0.292410  0.325250  0.352200  0.340160  0.320510  0.331480  0.350050  0.349150  0.353720  0.373860  0.380540  0.378610  0.405680  0.447460  0.449250  0.414890  0.406090  0.448950  0.508270  0.558070  0.616580  0.689020  0.750880  0.793390  0.827580  0.858670  0.873530  0.875000  0.874900  0.860740  0.834760  0.833700  0.893120  0.994450  1.127700  1.325900  1.539900  1.697600  1.831700  2.000700  2.172400  2.320700  2.505900  2.720700  2.901600  3.070900  3.263200  3.443800  3.593400  3.744100  3.865300  3.886700  3.820300  3.733200  3.627100  3.464900  3.280300  3.142400  3.065400  2.961400  2.777300  2.546400  2.282500  1.946600  1.504000  1.031300  0.577500  0.083059 -0.510050 -1.194700 -1.929700 -2.683500 -3.374400 -3.943800 -4.422900 -4.829900 -5.132100 -5.298000 -5.345800 -5.270000 -5.033200 -4.681600 -4.347700 -4.097900 -3.863600 -3.600200 -3.347900 -3.136000 -2.966500 -2.872400 -2.787700 -2.561200 -2.158700 -1.680400 -1.229900 -0.821150 -0.475200 -0.194690  0.059111  0.251590  0.289300  0.095377 -0.271190 -0.704920 -1.164100 -1.579500 -1.864500 -1.994700 -2.033400 -2.017200 -1.952000 -1.931000 -2.003300 
Shapelet   2  -1.007600 -1.064500 -1.177000 -1.281700 -1.326900 -1.367200 -1.412500 -1.432600 -1.466600 -1.513900 -1.516300 -1.507100 -1.551700 -1.605800 -1.594900 -1.534900 -1.468400 -1.389100 -1.294100 -1.203300 -1.115400 -1.024100 -0.932890 -0.851640 -0.793470 -0.731980 -0.620040 -0.475140 -0.357160 -0.289400 -0.257670 -0.237850 -0.193460 -0.112300 -0.061111 -0.061077 -0.009765  0.089168  0.125020  0.154110  0.249740  0.309790  0.313440  0.357560  0.419870  0.453040  0.516760  0.623420  0.690770  0.709350  0.745040  0.791990  0.813160  0.832550  0.854590  0.853670  0.848070  0.852320  0.852140  0.849010  0.853570 
Shapelet   3   0.447860  0.445710  0.436970  0.430530  0.428430  0.424160  0.421230  0.425300  0.429470  0.428850  0.430420  0.435460  0.436280  0.434100  0.435690  0.439450  0.442690  0.447920  0.455780  0.462260  0.465790  0.469480  0.472520  0.471020  0.469770  0.476180  0.484330  0.484300  0.481250  0.484460  0.488870  0.488810  0.489660  0.489980  0.484970  0.483680  0.488670  0.489950  0.488820  0.489380  0.488870  0.489520  0.489700  0.484820  0.483470  0.489360  0.490860  0.487230  0.489650  0.494910  0.492760  0.489520  0.493060  0.496040  0.495350  0.495100  0.494500  0.495830  0.500270  0.499780  0.494400  0.494090  0.496870  0.494250  0.493800  0.500430  0.499700  0.494830  0.501850  0.507290  0.502030  0.500940  0.499240  0.490180  0.490040  0.497640  0.495970  0.489660  0.489570  0.489640  0.484810  0.482440  0.483600  0.483090  0.483230  0.483460  0.482490  0.484250  0.482940  0.477560  0.478180  0.476360  0.466810  0.466370  0.471960  0.471300  0.473320  0.477880  0.477420  0.477540  0.476140  0.471580  0.473630  0.477910  0.477400  0.479550  0.484920  0.488990  0.493190  0.495330  0.495410  0.498530  0.502030  0.501580  0.503200  0.511660  0.519660  0.523340  0.526300  0.525180  0.522990  0.530330  0.537640  0.536520  0.540920  0.550420  0.553920  0.559320  0.568780  0.572590  0.574780  0.580470  0.584460  0.587000  0.593060  0.601490  0.609390  0.617620  0.626050  0.631460  0.632720  0.632970  0.638230  0.649550  0.657070  0.659040  0.667840  0.681190  0.686060  0.687370  0.693490  0.701050  0.708780  0.717790  0.725560  0.732800  0.742160  0.750420  0.754850  0.759890  0.767790  0.775910  0.784530  0.792650  0.799240  0.809660  0.822250  0.830430  0.839630  0.852480  0.861710  0.868690  0.877450  0.885380  0.893140  0.901950  0.909580  0.917470  0.926450  0.931200  0.932340  0.938900  0.950630  0.960050  0.969230  0.981290  0.989040  0.993110  1.003800  1.017500  1.022600  1.024900  1.035600  1.048000  1.055500  1.063800  1.071200  1.074600  1.081100  1.090000  1.097800  1.109500  1.120000  1.123400  1.131100  1.147400  1.159400  1.162900  1.167900  1.177500  1.185600  1.192100  1.201900  1.213600  1.223300  1.232500  1.243400  1.254500  1.262600  1.269600  1.276700  1.280300  1.286100  1.300300  1.310600  1.313000  1.322500  1.335400  1.338700  1.342800  1.353800  1.357700  1.356900  1.367100  1.380000  1.383600  1.389800  1.398900  1.398800  1.400700  1.410700  1.415500  1.418100  1.423600  1.426100  1.432000  1.441800  1.445500  1.448200  1.454200  1.457200  1.460600  1.466200  1.469300  1.472700  1.478200  1.481800  1.483200  1.483400  1.482700  1.482900  1.483200  1.482600  1.485100  1.490000  1.490000  1.485200  1.482500  1.483000  1.483500  1.481800  1.478000  1.475700  1.477400  1.477900  1.473700  1.468000  1.460500  1.450600  1.444300  1.442100  1.437600  1.431000  1.423900  1.414700  1.406100  1.399500  1.391100  1.379800  1.368600  1.356100  1.342100  1.332600  1.325000  1.310500  1.294800  1.283000  1.268100  1.251600  1.235800  1.217800  1.204200  1.192800  1.175600  1.161600  1.150500  1.130500  1.110900  1.096200  1.075700  1.056000  1.041500  1.024400  1.008700  0.993070 


; cmd = /home/grad00/soren885/capstone/ShapeletResearch/Execs/FastShapelet /home/grad00/soren885/capstone/Shapelet_Datasets/UCR_Master/CinC_ECG_torso_TRAIN 4 40 820 1 2 10 correlation 1 0 10 ./replications/CinC_ECG_torso/CinC_ECG_torso_correlation_unnormed_CID_REP03_tree.txt ./replications/CinC_ECG_torso/CinC_ECG_torso_correlation_unnormed_CID_REP03_time.txt
; time =>  1560.582  11.458  55.732   4.403 1483.849 
; command = /home/grad00/soren885/capstone/ShapeletResearch/Execs/Classify /home/grad00/soren885/capstone/Shapelet_Datasets/UCR_Master/CinC_ECG_torso_TEST 4 1380 correlation 1 0 ./replications/CinC_ECG_torso/CinC_ECG_torso_correlation_unnormed_CID_REP03_tree.txt ./replications/CinC_ECG_torso/CinC_ECG_torso_correlation_unnormed_CID_REP03_acc.txt
; accuracy= 77.246   Correct:1066 , Wrong: 314


;   == Confusion Matrix ==
;   real |   3    2    4    1 
;   -----+------------------------
;   p  3 | 249   97    0    0 
;   p  2 |  73  201    0    8 
;   p  4 |  11   44  340   66 
;   p  1 |  10    0    5  276 

