;Shapelet Tree 

;random seed:1503425287, rand()=1506607380, rand()=1359521900
;command = /home/grad00/soren885/capstone/ShapeletResearch/Execs/FastShapelet /home/grad00/soren885/capstone/Shapelet_Datasets/UCR_Master/CinC_ECG_torso_TRAIN 4 40 820 1 2 10 euclidean 1 0 10 ./replications/CinC_ECG_torso/CinC_ECG_torso_euclidean_unnormed_CID_REP02_tree.txt ./replications/CinC_ECG_torso/CinC_ECG_torso_euclidean_unnormed_CID_REP02_time.txt 

;Local Class:   0  1  2  3 
;Real  Class:   1  3  4  2 

;Node ID class   obj  pos  len  dist_th 
TreeSize: 24 
NonL  1    --     15   79  721  45.3408 ==>   2  12   0  13  /   3   0  10   0 
NonL  2    --      9  982  391   7.4996 ==>   0   1   0  12  /   2  11   0   1 
NonL  3    --     11    8  653  28.9186 ==>   3   0   0   0  /   0   0  10   0 
Leaf  4     2    
NonL  5    --      5  1001  467  38.3538 ==>   0  11   0   0  /   2   0   0   1 
Leaf  6     1    
Leaf  7     4    
Leaf 10     3    
NonL 11    --      0  601   47  48.6326 ==>   2   0   0   0  /   0   0   0   1 
Leaf 22     1    
Leaf 23     2    

;Shapelet id   <data>
Shapelet   1   0.166160  0.177110  0.193040  0.191760  0.199030  0.217770  0.204700  0.162720  0.143050  0.159420  0.181860  0.192790  0.193300  0.187800  0.195050  0.227920  0.259910  0.262170  0.245230  0.229020  0.212020  0.194320  0.195040  0.223010  0.257030  0.271670  0.259370  0.226860  0.188910  0.164070  0.163830  0.179770  0.194550  0.210110  0.230920  0.240480  0.239360  0.242770  0.236660  0.218800  0.213840  0.215590  0.214260  0.226860  0.242250  0.240630  0.245700  0.271080  0.287570  0.286330  0.289920  0.290990  0.272860  0.264980  0.283620  0.294450  0.284120  0.267900  0.249670  0.238050  0.239160  0.240600  0.239820  0.240160  0.237880  0.242960  0.260590  0.270130  0.258840  0.241570  0.244940  0.273720  0.289420  0.273250  0.263510  0.265420  0.249430  0.240560  0.260230  0.271140  0.258510  0.242130  0.234200  0.246030  0.263320  0.254200  0.235010  0.237990  0.245660  0.233770  0.217090  0.214840  0.213750  0.195020  0.181130  0.203560  0.237120  0.243770  0.238600  0.239770  0.238650  0.243610  0.261850  0.270130  0.257900  0.241620  0.226830  0.208390  0.192750  0.188580  0.195640  0.213360  0.234680  0.237780  0.218120  0.198640  0.187040  0.169610  0.148690  0.145170  0.165290  0.186160  0.194760  0.213420  0.239530  0.230140  0.193800  0.183310  0.199670  0.214840  0.230420  0.244790  0.240790  0.223180  0.213300  0.215520  0.217950  0.211500  0.192810  0.171540  0.170560  0.190650  0.210710  0.214620  0.192700  0.178190  0.212720  0.240050  0.209570  0.185880  0.191630  0.178030  0.163570  0.167520  0.154770  0.137250  0.143280  0.147650  0.139010  0.143340  0.161440  0.169190  0.167530  0.179750  0.203640  0.215800  0.215680  0.216580  0.215720  0.213150  0.222910  0.240160  0.243410  0.236570  0.240130  0.245180  0.226230  0.190510  0.168620  0.172540  0.192550  0.211410  0.217520  0.215540  0.203110  0.176170  0.168200  0.199300  0.230150  0.240350  0.254390  0.276220  0.288330  0.277140  0.242620  0.214700  0.213370  0.217050  0.215720  0.216240  0.214340  0.216270  0.219620  0.204690  0.191580  0.206420  0.226880  0.241460  0.259650  0.261490  0.236900  0.217220  0.217400  0.214640  0.197950  0.186370  0.193260  0.210170  0.220390  0.214530  0.211100  0.228790  0.239540  0.222860  0.209960  0.217500  0.233080  0.252540  0.264760  0.264170  0.265410  0.262570  0.245510  0.235380  0.240980  0.241860  0.236800  0.241110  0.243320  0.228190  0.214560  0.214550  0.220760  0.246090  0.282180  0.284920  0.259290  0.242510  0.236560  0.242250  0.259850  0.266840  0.263470  0.263790  0.263490  0.264540  0.265370  0.259940  0.267460  0.286790  0.274490  0.230760  0.212680  0.229900  0.241230  0.255520  0.286910  0.281820  0.244460  0.247450  0.265060  0.246100  0.233880  0.240470  0.223540  0.196830  0.193100  0.209870  0.232400  0.238890  0.221080  0.206700  0.222760  0.256650  0.281200  0.287870  0.270880  0.243610  0.242230  0.244160  0.218390  0.224030  0.277590  0.308090  0.314030  0.316070  0.279010  0.227960  0.215010  0.217680  0.214860  0.215060  0.223220  0.248890  0.265330  0.248270  0.240610  0.242650  0.219410  0.224430  0.278880  0.310510  0.312370  0.313340  0.299140  0.286150  0.288530  0.276640  0.260630  0.263470  0.256160  0.232700  0.236090  0.261280  0.259060  0.240990  0.241450  0.234540  0.216500  0.226210  0.243800  0.240340  0.248270  0.271450  0.267360  0.234110  0.209770  0.213750  0.231840  0.242010  0.240380  0.237540  0.243610  0.261510  0.282280  0.286810  0.266870  0.243310  0.243280  0.262260  0.269700  0.259390  0.262420  0.282400  0.287650  0.287300  0.303880  0.313960  0.312120  0.316090  0.301810  0.265900  0.265850  0.306000  0.313860  0.277620  0.264060  0.286580  0.306580  0.313020  0.290410  0.247210  0.248480  0.286640  0.305300  0.319430  0.313790  0.251180  0.197840  0.191690  0.179870  0.158270  0.143860  0.125690  0.118330  0.119430  0.103250  0.095273  0.118820  0.140910  0.142590  0.143370  0.146490  0.136370  0.119320  0.116130  0.122010  0.119260  0.115540  0.127220  0.143520  0.146300  0.140790  0.143570  0.159290  0.173480  0.167140  0.147870  0.146650  0.168240  0.186870  0.198080  0.216480  0.225030  0.194390  0.141340  0.105400  0.082598  0.044804  0.007465 -0.006737 -0.027188 -0.062694 -0.080621 -0.099699 -0.136280 -0.146580 -0.147280 -0.192880 -0.240810 -0.241510 -0.235500 -0.259100 -0.293090 -0.312070 -0.314900 -0.314900 -0.315380 -0.312740 -0.315640 -0.331490 -0.344440 -0.337680 -0.333140 -0.351990 -0.362610 -0.346170 -0.329850 -0.311830 -0.278210 -0.253890 -0.240070 -0.207790 -0.181120 -0.198020 -0.220630 -0.200320 -0.166630 -0.151490 -0.129250 -0.092610 -0.060528 -0.027830  0.002406  0.019148  0.027199  0.021141  0.016234  0.049961  0.102740  0.135880  0.156960  0.168280  0.166160  0.181840  0.222720  0.242080  0.232480  0.245050  0.280630  0.292400  0.287910  0.290110  0.272250  0.233020  0.215440  0.218130  0.215230  0.228840  0.269840  0.287840  0.269140  0.260890  0.263270  0.246010  0.232710  0.242610  0.243940  0.225780  0.214800  0.215680  0.214310  0.217920  0.235200  0.245570  0.237310  0.236320  0.253950  0.265000  0.263950  0.265410  0.262520  0.261140  0.278660  0.287270  0.268680  0.258550  0.266110  0.266020  0.253960  0.233990  0.216750  0.223220  0.246170  0.262180  0.266090  0.262880  0.262890  0.267600  0.259920  0.242410  0.237240  0.240460  0.239490  0.248650  0.269540  0.268130  0.245220  0.241420  0.242740  0.220910  0.221290  0.258140  0.272110  0.260590  0.262510  0.266970  0.262430  0.263230  0.265850  0.262750  0.263260  0.266430  0.261780  0.262150  0.278810  0.289890  0.288270  0.289070  0.286260  0.286350  0.304560  0.310560  0.290790  0.282550  0.291290  0.289630  0.274420  0.259620  0.262000  0.281410  0.286250  0.266470  0.257200  0.268910  0.266190  0.243760  0.246150  0.283970  0.302500  0.272170  0.240870  0.249170  0.272800  0.287180  0.292380  0.281660  0.264910  0.262370  0.264130  0.263800  0.267020  0.257540  0.240390  0.249620  0.271700  0.265580  0.243180  0.244320  0.263210  0.258340  0.222100  0.192490  0.189180  0.192510  0.191670  0.192050  0.190490  0.191320  0.205150  0.224310  0.239430  0.244730  0.231940  0.216040  0.214880  0.215090  0.215570  0.230560  0.244840  0.240140  0.224720  0.207220  0.191790  0.188500  0.194780  0.191730  0.176830  0.155630  0.119320  0.101680  0.153330  0.215940  0.209570  0.176750  0.167500  0.165590  0.174220  0.191870  0.194020  0.190420  0.191660  0.190820  0.193940  0.191290  0.173530  0.169140  0.192830  0.225320  0.258700  0.289130  0.295180  0.280790  0.289560  0.326230  0.338310  0.310130  0.266720  0.197710  0.087388 -0.041364 -0.163430 -0.274180 -0.395720 -0.545080 -0.686170 -0.808480 -0.958810 -1.123400 -1.264900 -1.420600 -1.610600 -1.814000 -2.042300 -2.292200 -2.544900 -2.814700 -3.091400 -3.346900 -3.601300 -3.863600 -4.105700 -4.326200 -4.533800 -4.724100 -4.918700 -5.141900 -5.369500 -5.564600 -5.739500 -5.941000 -6.180400 -6.423600 -6.662000 -6.905200 -7.117000 -7.265900 -7.359600 -7.377100 -7.314100 -7.214900 -7.061500 -6.821700 -6.549600 -6.272900 -5.954500 -5.595700 -5.217800 -4.829600 -4.458300 -4.113000 -3.762200 -3.380600 -2.960000 -2.508900 -2.060500 -1.633800 -1.216900 -0.792780 -0.346140  0.107730 
Shapelet   2   0.458390  0.461240  0.463010  0.453830  0.441480  0.438910  0.439840  0.428690  0.414680  0.417210  0.432160  0.440520  0.439240  0.441840  0.442910  0.426850  0.399950  0.374830  0.353320  0.339990  0.346290  0.359910  0.354510  0.334900  0.321730  0.319510  0.320130  0.319790  0.320060  0.319820  0.320080  0.320250  0.318850  0.320670  0.330600  0.347230  0.358930  0.360300  0.360320  0.361850  0.357060  0.344020  0.335580  0.340040  0.351590  0.362640  0.363530  0.352060  0.340720  0.339380  0.339190  0.327220  0.314260  0.317960  0.333280  0.339880  0.328420  0.314860  0.317240  0.331450  0.340470  0.339950  0.340670  0.341070  0.336760  0.340390  0.354460  0.359370  0.346160  0.330910  0.320680  0.314750  0.323850  0.338750  0.334860  0.320940  0.325070  0.343380  0.355430  0.365520  0.378360  0.382840  0.379890  0.379610  0.378520  0.365230  0.346820  0.340210  0.341820  0.336840  0.323670  0.316520  0.320090  0.322140  0.318890  0.318390  0.322260  0.320670  0.316040  0.322080  0.325520  0.309500  0.298870  0.318650  0.342280  0.342730  0.339730  0.341270  0.330260  0.320060  0.330520  0.343410  0.341490  0.339170  0.340210  0.330420  0.315430  0.304070  0.291810  0.280520  0.277840  0.280480  0.280190  0.280210  0.280510  0.271790  0.257680  0.254550  0.267430  0.279240  0.279210  0.280800  0.292670  0.302890  0.301040  0.302030  0.321330  0.340190  0.335830  0.321890  0.320960  0.320390  0.306680  0.299690  0.302000  0.292000  0.280180  0.289750  0.300580  0.288210  0.274810  0.278840  0.282930  0.279440  0.278460  0.281090  0.280890  0.274000  0.258570  0.242680  0.240850  0.242520  0.226280  0.199720  0.183440  0.178920  0.178340  0.185530  0.199300  0.204300  0.197890  0.196020  0.207450  0.219250  0.220660  0.220090  0.221370  0.215630  0.202270  0.195130  0.201080  0.212520  0.225720  0.238200  0.237950  0.218930  0.200060  0.203930  0.218280  0.215520  0.200280  0.196290  0.200320  0.189090  0.166420  0.159310  0.172000  0.179890  0.167880  0.153930  0.157970  0.167130  0.156800  0.130650  0.115290  0.118240  0.122560  0.119460  0.117550  0.121470  0.121390  0.116000  0.119970  0.133810  0.140560  0.139400  0.142050  0.140430  0.126790  0.119390  0.121550  0.113170  0.100490  0.100740  0.098082  0.083787  0.080163  0.081703  0.061970  0.037938  0.036071  0.040647  0.039053  0.046674  0.060127  0.061238  0.060939  0.074341  0.086172  0.080115  0.065864  0.058662  0.058996  0.060395  0.059873  0.058658  0.060703  0.070949  0.092359  0.117010  0.122190  0.094046  0.054298  0.032524  0.022685  0.007414 -0.000201  0.011444  0.022250  0.020579  0.019815  0.019626  0.008562 -0.002735 -0.001531 -0.002362 -0.019088 -0.037668 -0.038962 -0.026492 -0.013313 -0.001741  0.005588 -0.003531 -0.028121 -0.049398 -0.059284 -0.063409 -0.059439 -0.046472 -0.038556 -0.040291 -0.035594 -0.019717 -0.013111 -0.026527 -0.039608 -0.038324 -0.040176 -0.054618 -0.059589 -0.046024 -0.036617 -0.040016 -0.041190 -0.041043 -0.052118 -0.069181 -0.079611 -0.082416 -0.079685 -0.069503 -0.050962 -0.026202 -0.004876 -0.000761 -0.012659 -0.023150 -0.021983 -0.017929 -0.020436 -0.022877 -0.018709 -0.018071 -0.024841 -0.021228 -0.004767 -0.001902 -0.015982 -0.021297 -0.019760 -0.031402 -0.040177 -0.019160  0.016986  0.038015  0.041445  0.039462  0.038167  0.042778  0.055930  0.066060  0.059137  0.044003  0.039831  0.041443  0.031667  0.019774  0.026909  0.043680  0.044219  0.033668  0.038218  0.054986  0.059145  0.056028  0.068019  0.079978  0.069450  0.059716  0.071844  0.082518  0.079827  0.085856  0.100680  0.103180  0.098128  0.098893  0.100650  0.099813  0.100060  0.099138  0.098104  0.105980  0.119200  0.123390  0.118360  0.116990  0.125550  0.138210  0.150370  0.161560  0.164100  0.153160  0.141000  0.139200  0.139670  0.137420  0.144260  0.157590  0.161110  0.160030  0.169580  0.185030  0.196340  0.207880  0.219790  0.223150  0.217740  0.206150  0.190340 
Shapelet   3   0.268520  0.334590  0.466720  0.598860  0.697960  0.664920  0.631890  0.631890  0.532790  0.433690  0.433690  0.400660  0.301550  0.268520  0.334590  0.334590  0.268520  0.301550  0.367620  0.301550  0.235490  0.169420  0.169420  0.103350  0.070320  0.103350  0.070320 -0.028781 -0.193950 -0.160920 -0.193950 -0.226980 -0.326080 -0.392150 -0.491250 -0.557320 -0.755520  0.764020  0.797060  0.830090  0.896160  0.896160  0.962230  1.061300  1.028300  0.929190  0.830090  0.797060  0.797060  0.830090  0.896160  0.929190  0.929190  0.863130  0.797060  0.830090  0.863130  0.863130  0.830090  0.797060  0.797060  0.830090  0.896160  0.995260  0.995260  0.863130  0.797060  0.863130  0.896160  0.830090  0.764020  0.697960  0.631890  0.664920  0.697960  0.764020  0.730990  0.730990  0.797060  0.830090  0.863130  0.863130  0.896160  0.896160  0.896160  0.830090  0.764020  0.830090  0.830090  0.830090  0.929190  0.962230  0.863130  0.797060  0.764020  0.797060  0.830090  0.830090  0.797060  0.797060  0.863130  0.863130  0.764020  0.764020  0.764020  0.598860  0.598860  0.730990  0.863130  0.863130  0.797060  0.697960  0.664920  0.598860  0.631890  0.764020  0.797060  0.830090  0.863130  0.730990  0.598860  0.664920  0.730990  0.730990  0.598860  0.598860  0.664920  0.697960  0.697960  0.664920  0.730990  0.797060  0.730990  0.697960  0.664920  0.764020  0.863130  0.797060  0.631890  0.532790  0.532790  0.565820  0.730990  0.797060  0.830090  0.830090  0.730990  0.631890  0.598860  0.565820  0.499760  0.499760  0.565820  0.532790  0.565820  0.631890  0.598860  0.631890  0.697960  0.730990  0.697960  0.631890  0.598860  0.664920  0.664920  0.631890  0.598860  0.598860  0.631890  0.631890  0.565820  0.466720  0.466720  0.499760  0.565820  0.565820  0.466720  0.367620  0.433690  0.664920  0.764020  0.697960  0.697960  0.730990  0.664920  0.697960  0.697960  0.664920  0.631890  0.532790  0.499760  0.565820  0.598860  0.565820  0.532790  0.631890  0.598860  0.598860  0.598860  0.565820  0.664920  0.730990  0.730990  0.730990  0.764020  0.730990  0.565820  0.532790  0.532790  0.565820  0.532790  0.532790  0.532790  0.532790  0.565820  0.565820  0.532790  0.598860  0.664920  0.730990  0.730990  0.730990  0.730990  0.730990  0.664920  0.631890  0.598860  0.631890  0.664920  0.598860  0.532790  0.565820  0.532790  0.433690  0.433690  0.466720  0.565820  0.598860  0.598860  0.631890  0.631890  0.664920  0.631890  0.631890  0.664920  0.565820  0.499760  0.565820  0.664920  0.598860  0.499760  0.466720  0.466720  0.466720  0.466720  0.466720  0.532790  0.631890  0.664920  0.598860  0.565820  0.532790  0.565820  0.565820  0.598860  0.532790  0.499760  0.499760  0.598860  0.664920  0.664920  0.598860  0.565820  0.466720  0.499760  0.598860  0.664920  0.631890  0.532790  0.466720  0.433690  0.466720  0.565820  0.598860  0.565820  0.532790  0.499760  0.565820  0.565820  0.631890  0.664920  0.598860  0.499760  0.433690  0.400660  0.367620  0.400660  0.433690  0.433690  0.466720  0.499760  0.433690  0.433690  0.532790  0.598860  0.598860  0.631890  0.598860  0.631890  0.631890  0.598860  0.532790  0.433690  0.400660  0.400660  0.433690  0.466720  0.400660  0.400660  0.400660  0.367620  0.400660  0.499760  0.532790  0.499760  0.532790  0.565820  0.532790  0.532790  0.664920  0.697960  0.565820  0.433690  0.433690  0.565820  0.532790  0.499760  0.367620  0.367620  0.466720  0.532790  0.565820  0.697960  0.664920  0.499760  0.466720  0.400660  0.466720  0.466720  0.499760  0.499760  0.433690  0.400660  0.433690  0.466720  0.433690  0.433690  0.400660  0.433690  0.499760  0.499760  0.532790  0.466720  0.499760  0.532790  0.499760  0.499760  0.466720  0.499760  0.499760  0.433690  0.367620  0.367620  0.367620  0.367620  0.367620  0.367620  0.433690  0.400660  0.235490  0.169420  0.301550  0.433690  0.565820  0.532790  0.565820  0.565820  0.532790  0.532790  0.466720  0.433690  0.400660  0.400660  0.400660  0.466720  0.565820  0.631890  0.565820  0.532790  0.532790  0.499760  0.499760  0.499760  0.532790  0.433690  0.334590  0.334590  0.466720  0.466720  0.400660  0.400660  0.400660  0.400660  0.433690  0.466720  0.400660  0.400660  0.466720  0.466720  0.400660  0.400660  0.433690  0.466720  0.532790  0.565820  0.532790  0.532790  0.499760  0.499760  0.565820  0.532790  0.466720  0.400660  0.400660  0.433690  0.466720  0.400660  0.400660  0.400660  0.400660  0.367620  0.301550  0.301550  0.367620  0.334590  0.301550  0.268520  0.235490  0.169420  0.103350  0.004253 -0.061815 -0.127880 -0.193950 -0.160920 -0.260020 -0.392150 -0.491250 -0.425180 -0.392150 -0.425180 -0.458220 -0.425180 -0.458220 -0.557320 -0.590350 -0.623390 -0.557320 -0.590350 -0.656420 -0.590350 -0.557320 -0.623390 -0.722490 -0.689450 -0.623390 -0.590350 -0.656420 -0.722490 -0.656420 -0.491250 -0.425180 -0.293050 -0.293050 -0.359120 -0.392150 -0.392150 -0.392150 -0.392150 -0.392150 -0.359120 -0.425180 -0.623390 -0.755520 -0.821590 -0.755520 -0.821590 -0.920690 -0.953720 -1.052800 -1.118900 -1.019800 -0.887650 -0.788550 -0.788550 -0.722490 -0.656420 -0.557320 -0.392150 -0.293050 -0.193950 -0.094848 -0.094848 -0.160920 -0.226980 -0.293050 -0.226980 -0.127880 -0.127880 -0.293050 -0.425180 -0.458220 -0.491250 -0.491250 -0.458220 -0.293050 -0.193950 -0.160920 -0.226980 -0.160920 -0.094848 -0.061815 -0.127880 -0.160920 -0.094848 -0.193950 -0.226980 -0.226980 -0.226980 -0.326080 -0.260020 -0.160920 -0.061815  0.037286  0.103350  0.103350  0.070320  0.070320  0.169420  0.235490  0.334590  0.334590  0.301550  0.400660  0.499760  0.565820  0.532790  0.532790  0.532790  0.499760  0.532790  0.565820  0.764020  0.929190  0.863130  0.664920  0.532790  0.565820  0.697960  0.664920  0.532790  0.499760  0.532790  0.565820  0.565820  0.532790  0.598860  0.631890  0.664920  0.631890  0.631890  0.664920  0.697960  0.730990  0.730990  0.797060  0.730990  0.598860  0.598860  0.598860  0.565820  0.466720  0.433690  0.400660  0.466720  0.631890  0.764020  0.730990  0.664920  0.532790  0.499760  0.598860  0.565820  0.565820  0.631890  0.664920  0.598860  0.631890  0.631890  0.631890  0.631890  0.664920  0.565820  0.499760  0.433690  0.400660  0.301550  0.202450  0.235490  0.202450  0.037286 -0.061815 -0.061815 -0.160920 -0.326080 -0.590350 -0.854620 -1.085900 -1.284100 -1.449200 -1.614400 -1.977800 -2.407200 -2.902700 -3.266100 -3.497300 -3.662500 -3.728500 -3.662500 -3.728500 -3.860700 -3.893700 -3.827600 -3.827600 -4.091900 -4.455300 -4.785600 -5.116000 -5.347200 -5.578400 -5.644500 -5.380200 -4.851700 
Shapelet   5  -0.427000 -0.426930 -0.426520 -0.427040 -0.424950 -0.414050 -0.404070 -0.406590 -0.413360 -0.415740 -0.416120 -0.412870 -0.403520 -0.394690 -0.392190 -0.393110 -0.393260 -0.391780 -0.386660 -0.375570 -0.363630 -0.358980 -0.359300 -0.357310 -0.352890 -0.345910 -0.335670 -0.330770 -0.334680 -0.337290 -0.336370 -0.336760 -0.333320 -0.323970 -0.318890 -0.321930 -0.325340 -0.325260 -0.325210 -0.324820 -0.318000 -0.305670 -0.295670 -0.288120 -0.282210 -0.287090 -0.299770 -0.302530 -0.295770 -0.291810 -0.289380 -0.284610 -0.277370 -0.267650 -0.262630 -0.263240 -0.260180 -0.257230 -0.261310 -0.264190 -0.262590 -0.262640 -0.262070 -0.255520 -0.244070 -0.232940 -0.228890 -0.232800 -0.238210 -0.240300 -0.236810 -0.228510 -0.222630 -0.222840 -0.223790 -0.223170 -0.223320 -0.222010 -0.215970 -0.208140 -0.202980 -0.200030 -0.196290 -0.191850 -0.188750 -0.185240 -0.178340 -0.170840 -0.167060 -0.166900 -0.166110 -0.158470 -0.147060 -0.144690 -0.149480 -0.146220 -0.135870 -0.128690 -0.120280 -0.106560 -0.098971 -0.100400 -0.097016 -0.088720 -0.087003 -0.087138 -0.082899 -0.079540 -0.073960 -0.061956 -0.052015 -0.046358 -0.038579 -0.030203 -0.023114 -0.011467  0.003099  0.009104  0.008164  0.015073  0.030281  0.041300  0.045853  0.049234  0.053002  0.058756  0.068623  0.080138  0.091102  0.103000  0.114340  0.124390  0.138020  0.153530  0.163380  0.168280  0.172090  0.175300  0.180210  0.188210  0.198040  0.212130  0.231970  0.247960  0.252130  0.256080  0.270350  0.283770  0.290400  0.302710  0.319390  0.325350  0.327920  0.344100  0.363440  0.372000  0.379350  0.387260  0.387080  0.389690  0.403040  0.415740  0.424510  0.432280  0.438420  0.448970  0.465340  0.480720  0.494570  0.505770  0.512830  0.520980  0.528760  0.531760  0.537720  0.550760  0.563000  0.571570  0.579570  0.586760  0.594450  0.607420  0.623720  0.632790  0.631240  0.631230  0.641580  0.653320  0.657670  0.659640  0.664740  0.674050  0.687690  0.698760  0.702450  0.705470  0.710200  0.715800  0.725870  0.732950  0.731540  0.734900  0.744200  0.747800  0.751510  0.761210  0.769050  0.773690  0.778290  0.783890  0.794500  0.806630  0.811200  0.810830  0.812270  0.815200  0.818520  0.823650  0.833210  0.845780  0.851830  0.847790  0.842820  0.840420  0.838610  0.842320  0.852160  0.862730  0.873160  0.880240  0.882880  0.887600  0.891400  0.890080  0.892490  0.897070  0.893210  0.888380  0.891650  0.895460  0.896770  0.903290  0.914620  0.921280  0.919220  0.914110  0.912670  0.913970  0.913520  0.912450  0.914130  0.917450  0.919480  0.919510  0.921640  0.929450  0.936990  0.940130  0.942990  0.941500  0.932580  0.929660  0.937490  0.945180  0.948520  0.947300  0.942480  0.941170  0.941930  0.937810  0.932830  0.930460  0.929410  0.932700  0.936480  0.932580  0.926540  0.924880  0.921480  0.912100  0.900730  0.892270  0.888240  0.884670  0.880200  0.877880  0.872630  0.860630  0.850580  0.844680  0.836720  0.830040  0.828730  0.828660  0.827130  0.821540  0.809770  0.799000  0.793960  0.786740  0.774470  0.765030  0.757950  0.745560  0.729200  0.713870  0.700740  0.691200  0.683740  0.675710  0.668910  0.661640  0.650670  0.639680  0.628690  0.613800  0.599460  0.588500  0.575170  0.559120  0.547550  0.542900  0.538610  0.527240  0.511030  0.497600  0.486540  0.474710  0.463970  0.452810  0.440140  0.430360  0.419410  0.402850  0.390730  0.384090  0.370890  0.355570  0.348740  0.343860  0.332720  0.317370  0.303470  0.294880  0.287710  0.276930  0.265320  0.254140  0.243930  0.239630  0.236260  0.227690  0.222530  0.219410  0.208320  0.198750  0.195990  0.189570  0.181540  0.174440  0.162740  0.153120  0.146260  0.131810  0.118350  0.116140  0.112320  0.100360  0.093534  0.094788  0.090656  0.078492  0.066742  0.055024  0.043662  0.040792  0.042762  0.038158  0.029177  0.024461  0.025221  0.028914  0.031514  0.026862  0.015384  0.005206 -0.001788 -0.009572 -0.016272 -0.019428 -0.020396 -0.019013 -0.019136 -0.028172 -0.041810 -0.047928 -0.044796 -0.042065 -0.047091 -0.055622 -0.061589 -0.069580 -0.079601 -0.081764 -0.081521 -0.089026 -0.094523 -0.093274 -0.093459 -0.092053 -0.087720 -0.087097 -0.088014 -0.092549 -0.104860 -0.111290 -0.104990 -0.099158 -0.099815 -0.104160 -0.111720 -0.118450 -0.121360 -0.124660 -0.128860 -0.127350 -0.119570 -0.114350 -0.115710 -0.117130 -0.113960 -0.110200 -0.109710 -0.110600 -0.110160 -0.109610 -0.111630 -0.115750 -0.117240 -0.113740 -0.110150 -0.110130 -0.109430 -0.104490 -0.097056 -0.090011 -0.087507 -0.091076 -0.094564 -0.093125 -0.089167 -0.086769 -0.087535 -0.088369 -0.086460 -0.087624 -0.095340 -0.101140 -0.098636 -0.088795 -0.073098 -0.058866 -0.056491 -0.063965 -0.070714 -0.071757 -0.068712 
Shapelet  11  -2.515800 -2.515800 -2.604200 -2.781100 -2.869500 -2.851800 -2.869500 -2.975600 -3.240900 -3.576900 -3.983700 -4.443500 -4.797300 -4.974100 -4.726500 -3.895300 -2.816500 -1.719900 -0.534990  0.791450  2.011800  2.913700  3.780300  4.629300  5.283600  5.796500  6.486300  7.229100  7.883400  8.590900  9.457500 10.200000 10.536000 10.483000 10.147000  9.705100  9.156800  8.325600  6.981500  5.301300  3.886500  3.019900  2.489300  1.994100  1.516600  1.056700  0.703020 


; cmd = /home/grad00/soren885/capstone/ShapeletResearch/Execs/FastShapelet /home/grad00/soren885/capstone/Shapelet_Datasets/UCR_Master/CinC_ECG_torso_TRAIN 4 40 820 1 2 10 euclidean 1 0 10 ./replications/CinC_ECG_torso/CinC_ECG_torso_euclidean_unnormed_CID_REP02_tree.txt ./replications/CinC_ECG_torso/CinC_ECG_torso_euclidean_unnormed_CID_REP02_time.txt
; time =>  753.072  12.766  57.221   4.407 673.286 
; command = /home/grad00/soren885/capstone/ShapeletResearch/Execs/Classify /home/grad00/soren885/capstone/Shapelet_Datasets/UCR_Master/CinC_ECG_torso_TEST 4 1380 euclidean 1 0 ./replications/CinC_ECG_torso/CinC_ECG_torso_euclidean_unnormed_CID_REP02_tree.txt ./replications/CinC_ECG_torso/CinC_ECG_torso_euclidean_unnormed_CID_REP02_acc.txt
; accuracy= 65.072   Correct:898 , Wrong: 482


;   == Confusion Matrix ==
;   real |   3    2    4    1 
;   -----+------------------------
;   p  3 | 184   61   13   71 
;   p  2 | 106  246    9   80 
;   p  4 |  35   29  322   53 
;   p  1 |  18    6    1  146 

