;Shapelet Tree 

;random seed:1503407098, rand()=103876890, rand()=723497953
;command = /home/grad00/soren885/capstone/ShapeletResearch/Execs/FastShapelet /home/grad00/soren885/capstone/Shapelet_Datasets/UCR_Master/CinC_ECG_torso_TRAIN 4 40 820 1 2 10 manhattan 0 1 10 ./replications/CinC_ECG_torso/CinC_ECG_torso_manhattan_normed_NOCID_REP09_tree.txt ./replications/CinC_ECG_torso/CinC_ECG_torso_manhattan_normed_NOCID_REP09_time.txt 

;Local Class:   0  1  2  3 
;Real  Class:   1  3  4  2 

;Node ID class   obj  pos  len  dist_th 
TreeSize: 10 
NonL  1    --     25   47  729  440.0591 ==>   0  12   0  13  /   5   0  10   0 
NonL  2    --      0  533   51   6.9609 ==>   0  12   0   2  /   0   0   0  11 
NonL  3    --      1  900  141  16.1699 ==>   0   0  10   0  /   5   0   0   0 
NonL  4    --      4   77  623  153.8722 ==>   0   0   0   2  /   0  12   0   0 
Leaf  5     2    
Leaf  6     4    
Leaf  7     1    
Leaf  8     2    
Leaf  9     3    

;Shapelet id   <data>
Shapelet   1   0.674710  0.614440  0.546630  0.545020  0.554080  0.529150  0.531320  0.590270  0.639930  0.631450  0.592730  0.565370  0.553710  0.548870  0.561010  0.597580  0.635140  0.642100  0.613160  0.573030  0.553580  0.557950  0.555340  0.543550  0.560810  0.600830  0.614830  0.611200  0.628110  0.641450  0.622760  0.611940  0.634930  0.652900  0.639940  0.608110  0.566930  0.530930  0.520860  0.524780  0.522090  0.530270  0.566490  0.605200  0.613290  0.586040  0.544430  0.522510  0.534830  0.552940  0.553110  0.555740  0.574470  0.586770  0.583950  0.583480  0.582510  0.566280  0.548380  0.550770  0.560260  0.553550  0.545560  0.562350  0.582820  0.573550  0.554360  0.553560  0.551640  0.533490  0.511640  0.472360  0.409760  0.376890  0.395830  0.413380  0.408320  0.416510  0.440150  0.456410  0.478530  0.516110  0.543690  0.554690  0.571350  0.586290  0.566910  0.526640  0.524720  0.576070  0.622090  0.620370  0.603320  0.611130  0.623670  0.604970  0.567600  0.542600  0.527270  0.507530  0.494600  0.496080  0.490620  0.470270  0.460150  0.466980  0.457630  0.420650  0.402770  0.440760  0.496920  0.511070  0.484990  0.465910  0.475920  0.495160  0.490120  0.456020  0.433990  0.450650  0.466780  0.449020  0.438600  0.473300  0.511100  0.501640  0.463020  0.434320  0.417300  0.401620  0.402870  0.433610  0.467950  0.474200  0.461650  0.461860  0.479960  0.495540  0.498530  0.493200  0.477080  0.444650  0.409820  0.397770  0.413260  0.433880  0.433350  0.410990  0.404670  0.447460  0.508560  0.525130  0.500090  0.496010  0.528260  0.541550  0.506230  0.469310  0.474400  0.496030  0.499130  0.494990  0.496610  0.488090  0.467180  0.448640  0.433520  0.430720  0.451530  0.466750  0.450270  0.437080  0.455130  0.473040  0.468590  0.454010  0.434490  0.425760  0.454720  0.492770  0.480680  0.434600  0.422150  0.448750  0.466360  0.462680  0.466300  0.486090  0.495780  0.477710  0.449760  0.437340  0.438290  0.436280  0.434860  0.441120  0.439130  0.419500  0.407910  0.423600  0.448550  0.464280  0.470360  0.465530  0.460910  0.472590  0.473930  0.431100  0.377590  0.364730  0.390610  0.442460  0.512330  0.553610  0.539760  0.524130  0.543780  0.560900  0.554900  0.551690  0.554080  0.552010  0.560930  0.580610  0.587290  0.582750  0.582860  0.582450  0.581590  0.594490  0.613330  0.617890  0.607160  0.589040  0.574630  0.583090  0.607730  0.607980  0.571410  0.528980  0.497630  0.473280  0.467500  0.485920  0.502040  0.497170  0.489350  0.498180  0.516940  0.528780  0.526820  0.513300  0.493510  0.474170  0.463260  0.464190  0.475290  0.496330  0.528210  0.567930  0.604340  0.615850  0.585250  0.527720  0.490140  0.505850  0.552940  0.582080  0.583940  0.583180  0.571600  0.529880  0.496490  0.509600  0.524320  0.492900  0.449990  0.437100  0.437560  0.437430  0.452110  0.472680  0.471210  0.457500  0.466220  0.491740  0.490360  0.452390  0.423280  0.435090  0.461300  0.464580  0.447210  0.423390  0.385640  0.338460  0.321100  0.353050  0.400480  0.432370  0.452310  0.467790  0.484040  0.502540  0.501770  0.475130  0.466720  0.490450  0.489500  0.449660  0.427250  0.436650  0.441710  0.434940  0.420200  0.385400  0.351250  0.355530  0.384330  0.402390  0.415450  0.434730  0.434610  0.403410  0.389870  0.432870  0.488010  0.501180  0.495570  0.500040  0.487650  0.465540  0.489670  0.553540  0.600030  0.613970  0.599170  0.548770  0.497860  0.489300  0.495500  0.478290  0.454570  0.439440  0.421160  0.406710  0.407710  0.403970  0.383430  0.369150  0.381020  0.414460  0.450910  0.467530  0.454710  0.436940  0.446190  0.477670  0.497230  0.481200  0.439130  0.398100  0.375060  0.374950  0.384240  0.380470  0.362340  0.347350  0.333150  0.305780  0.290600  0.300610  0.286070  0.219530  0.142320  0.076040 -0.007233 -0.092758 -0.125980 -0.108070 -0.089167 -0.095089 -0.117620 -0.150510 -0.185200 -0.188770 -0.144470 -0.091622 -0.067835 -0.056103 -0.038289 -0.019474  0.019480  0.083608  0.117640  0.111340  0.132830  0.191160  0.241000  0.298210  0.387630  0.463050  0.509460  0.575240  0.642830  0.654480  0.639280  0.673340  0.758620  0.842990  0.902370  0.944120  0.979590  1.003400  0.995380  0.952920  0.891000  0.808150  0.704790  0.621580  0.590880  0.581380  0.561190  0.554390  0.575470  0.606670  0.644030  0.682950  0.707010  0.738650  0.815580  0.903870  0.946910  0.972100  1.025100  1.083900  1.108500  1.108000  1.110000  1.112500  1.097600  1.057900  1.005000  0.955410  0.917320  0.897420  0.900430  0.926830  0.966340  0.989870  0.991600  1.009500  1.050400  1.049600  0.991570  0.957770  0.964260  0.944420  0.905520  0.907760  0.944080  0.991470  1.072400  1.160300  1.193500  1.198800  1.232600  1.270400  1.262100  1.206600  1.127500  1.052500  1.000700  0.949580  0.883760  0.845210  0.847840  0.836810  0.796240  0.790710  0.845410  0.896840  0.900960  0.881860  0.862800  0.821770  0.748610  0.690520  0.685780  0.724580  0.779930  0.818330  0.813650  0.801880  0.843810  0.900490  0.881950  0.810740  0.778800  0.797950  0.815970  0.810710  0.786870  0.742070  0.674820  0.586730  0.501480  0.466270  0.492880  0.533370  0.549470  0.565070  0.606600  0.651530  0.673260  0.686740  0.718290  0.754150  0.764310  0.757890  0.768830  0.804890  0.839730  0.859520  0.876400  0.895520  0.907400  0.907170  0.891740  0.846800  0.774860  0.715180  0.697460  0.708560  0.727440  0.756120  0.797480  0.834410  0.856140  0.872800  0.884980  0.870100  0.819270  0.762750  0.732030  0.726580  0.729230  0.719080  0.681380  0.626630  0.587540  0.583440  0.601660  0.613860  0.596630  0.554980  0.525290  0.532580  0.561720  0.581440  0.579100  0.557520  0.522590  0.490730  0.485450  0.511990  0.548350  0.572450  0.584220  0.587190  0.577140  0.558630  0.541580  0.523650  0.503690  0.493870  0.495750  0.489520  0.466690  0.444210  0.436200  0.436310  0.441830  0.463910  0.491490  0.493010  0.473520  0.460700  0.442190  0.402110  0.377870  0.395100  0.413770  0.409080  0.414350  0.439060  0.434890  0.385800  0.350230  0.361820  0.378900  0.386770  0.424770  0.467290  0.435670  0.352960  0.312540  0.327070  0.359970  0.410030  0.462480  0.469750  0.426780  0.373100  0.327890  0.294580  0.292410  0.325250  0.352200  0.340160  0.320510  0.331480  0.350050  0.349150  0.353720  0.373860  0.380540  0.378610  0.405680  0.447460  0.449250  0.414890  0.406090  0.448950  0.508270  0.558070  0.616580  0.689020  0.750880  0.793390  0.827580  0.858670  0.873530  0.875000  0.874900  0.860740  0.834760  0.833700  0.893120  0.994450  1.127700  1.325900  1.539900  1.697600  1.831700  2.000700  2.172400  2.320700  2.505900  2.720700  2.901600  3.070900  3.263200  3.443800  3.593400  3.744100  3.865300  3.886700  3.820300  3.733200  3.627100  3.464900  3.280300  3.142400  3.065400  2.961400  2.777300  2.546400  2.282500  1.946600  1.504000  1.031300  0.577500  0.083059 -0.510050 -1.194700 -1.929700 -2.683500 -3.374400 -3.943800 -4.422900 -4.829900 -5.132100 -5.298000 -5.345800 -5.270000 -5.033200 -4.681600 -4.347700 -4.097900 -3.863600 -3.600200 -3.347900 -3.136000 -2.966500 -2.872400 -2.787700 -2.561200 -2.158700 -1.680400 -1.229900 -0.821150 -0.475200 -0.194690  0.059111  0.251590  0.289300  0.095377 -0.271190 -0.704920 -1.164100 -1.579500 -1.864500 -1.994700 -2.033400 -2.017200 -1.952000 -1.931000 -2.003300 
Shapelet   2  -1.007600 -1.064500 -1.177000 -1.281700 -1.326900 -1.367200 -1.412500 -1.432600 -1.466600 -1.513900 -1.516300 -1.507100 -1.551700 -1.605800 -1.594900 -1.534900 -1.468400 -1.389100 -1.294100 -1.203300 -1.115400 -1.024100 -0.932890 -0.851640 -0.793470 -0.731980 -0.620040 -0.475140 -0.357160 -0.289400 -0.257670 -0.237850 -0.193460 -0.112300 -0.061111 -0.061077 -0.009765  0.089168  0.125020  0.154110  0.249740  0.309790  0.313440  0.357560  0.419870  0.453040  0.516760  0.623420  0.690770  0.709350  0.745040 
Shapelet   3  -0.439840 -0.459760 -0.459050 -0.452890 -0.458140 -0.457930 -0.452770 -0.460540 -0.478780 -0.486060 -0.478000 -0.479640 -0.498090 -0.507180 -0.506130 -0.518540 -0.539450 -0.555600 -0.571460 -0.588280 -0.606040 -0.624260 -0.632440 -0.630750 -0.630010 -0.629370 -0.631350 -0.646310 -0.667460 -0.681920 -0.697020 -0.719810 -0.729480 -0.711740 -0.695420 -0.711050 -0.746120 -0.771170 -0.781800 -0.798820 -0.822620 -0.828300 -0.827460 -0.844080 -0.855000 -0.853590 -0.866330 -0.884820 -0.901940 -0.934420 -0.960610 -0.954370 -0.946440 -0.962340 -0.978820 -0.991240 -1.016500 -1.028200 -1.021900 -1.045500 -1.079800 -1.079500 -1.081000 -1.106200 -1.123200 -1.135400 -1.155900 -1.172300 -1.187200 -1.205800 -1.222400 -1.238200 -1.256000 -1.273300 -1.280500 -1.272300 -1.273100 -1.303000 -1.334400 -1.349400 -1.365200 -1.378400 -1.376400 -1.372300 -1.379500 -1.400300 -1.420700 -1.423500 -1.426100 -1.442900 -1.450900 -1.450900 -1.466000 -1.479700 -1.474300 -1.470700 -1.483800 -1.502500 -1.518500 -1.535100 -1.552700 -1.569500 -1.579700 -1.569700 -1.550700 -1.555900 -1.580800 -1.597400 -1.600600 -1.597000 -1.598100 -1.603500 -1.591100 -1.574800 -1.586300 -1.602600 -1.600000 -1.597000 -1.598600 -1.599800 -1.600900 -1.591000 -1.574700 -1.571200 -1.574900 -1.574700 -1.573500 -1.573100 -1.574900 -1.575600 -1.565300 -1.546500 -1.529100 -1.512400 -1.497300 -1.496800 -1.504800 -1.494900 -1.476500 -1.476000 -1.469400 
Shapelet   4  -0.145920 -0.149080 -0.146420 -0.142030 -0.141620 -0.144950 -0.148690 -0.150280 -0.148700 -0.147710 -0.151400 -0.155260 -0.153070 -0.148790 -0.148390 -0.149270 -0.148920 -0.150910 -0.155480 -0.157090 -0.153890 -0.149910 -0.148380 -0.149020 -0.151830 -0.156780 -0.160770 -0.162560 -0.167060 -0.175640 -0.180850 -0.180380 -0.181610 -0.186020 -0.187600 -0.186510 -0.186660 -0.185850 -0.181610 -0.177040 -0.173910 -0.170230 -0.166860 -0.167100 -0.169270 -0.167860 -0.163300 -0.161480 -0.162000 -0.159580 -0.155530 -0.154640 -0.155410 -0.155090 -0.156560 -0.160950 -0.164840 -0.168670 -0.175810 -0.183920 -0.186790 -0.185260 -0.187120 -0.194700 -0.201000 -0.200290 -0.195730 -0.192840 -0.192510 -0.193040 -0.193030 -0.192580 -0.192850 -0.193370 -0.192510 -0.192040 -0.194990 -0.198870 -0.199870 -0.198790 -0.195590 -0.189620 -0.186410 -0.189910 -0.192890 -0.189280 -0.185410 -0.186180 -0.187100 -0.186640 -0.189250 -0.195140 -0.198960 -0.197710 -0.192900 -0.188120 -0.186410 -0.186600 -0.186380 -0.186560 -0.187200 -0.186210 -0.185500 -0.189040 -0.192770 -0.190710 -0.185840 -0.182120 -0.178860 -0.179300 -0.186570 -0.193230 -0.193300 -0.193480 -0.197800 -0.201840 -0.205540 -0.210320 -0.211130 -0.206740 -0.204460 -0.205390 -0.202910 -0.197980 -0.197680 -0.201060 -0.199740 -0.192040 -0.185830 -0.185630 -0.187270 -0.186820 -0.186070 -0.186720 -0.186960 -0.186230 -0.186280 -0.188590 -0.193200 -0.197630 -0.199420 -0.199200 -0.199110 -0.199140 -0.198820 -0.199380 -0.199680 -0.197150 -0.193110 -0.191700 -0.193280 -0.193580 -0.191870 -0.192440 -0.196440 -0.199360 -0.199260 -0.199220 -0.199300 -0.198190 -0.199450 -0.203720 -0.205580 -0.205070 -0.207690 -0.211730 -0.212360 -0.211130 -0.207750 -0.199610 -0.192970 -0.195050 -0.200160 -0.200140 -0.198110 -0.198950 -0.199920 -0.198830 -0.198430 -0.199950 -0.199610 -0.195760 -0.192640 -0.192520 -0.192870 -0.192750 -0.193430 -0.192720 -0.188840 -0.185850 -0.186090 -0.188230 -0.192850 -0.198220 -0.198380 -0.193880 -0.193410 -0.198700 -0.203300 -0.206040 -0.209850 -0.212910 -0.212000 -0.210110 -0.212310 -0.216790 -0.217370 -0.212740 -0.209320 -0.212140 -0.217020 -0.217210 -0.212960 -0.208720 -0.205290 -0.201260 -0.198490 -0.198690 -0.199630 -0.199180 -0.198570 -0.199410 -0.199730 -0.197410 -0.193340 -0.189220 -0.186100 -0.185440 -0.188630 -0.192570 -0.191590 -0.185750 -0.180820 -0.181140 -0.185390 -0.189870 -0.193050 -0.196280 -0.200940 -0.204790 -0.205650 -0.205400 -0.205540 -0.205180 -0.204970 -0.206240 -0.205620 -0.201270 -0.199180 -0.202900 -0.207960 -0.211270 -0.213110 -0.210830 -0.203280 -0.196180 -0.193150 -0.192330 -0.192990 -0.193800 -0.191410 -0.187320 -0.186150 -0.186620 -0.186030 -0.187550 -0.191710 -0.193680 -0.192920 -0.192700 -0.192780 -0.192390 -0.194600 -0.198830 -0.198430 -0.191040 -0.182690 -0.179410 -0.180160 -0.180720 -0.180300 -0.180220 -0.180420 -0.180380 -0.180360 -0.180360 -0.180190 -0.180530 -0.180690 -0.178610 -0.174150 -0.169680 -0.167400 -0.167300 -0.169480 -0.173780 -0.176240 -0.172870 -0.168140 -0.169390 -0.173730 -0.174440 -0.174330 -0.178070 -0.181620 -0.180940 -0.177830 -0.173670 -0.169300 -0.167640 -0.168070 -0.166030 -0.161480 -0.157780 -0.153680 -0.146160 -0.136980 -0.130510 -0.126840 -0.122950 -0.119110 -0.116220 -0.112150 -0.107000 -0.105380 -0.106410 -0.102340 -0.094010 -0.090606 -0.093199 -0.094333 -0.091054 -0.087293 -0.084568 -0.079855 -0.070128 -0.056339 -0.045071 -0.039791 -0.036494 -0.032378 -0.029928 -0.030374 -0.029031 -0.024364 -0.020107 -0.017066 -0.013554 -0.009184 -0.005651 -0.002782  0.001993  0.009085  0.017365  0.024691  0.029760  0.032468  0.032685  0.031394  0.027367  0.023363  0.026271  0.034257  0.039649  0.042486  0.051061  0.063174  0.070882  0.078370  0.089560  0.101190  0.112250  0.125930  0.141630  0.156040  0.171650  0.186530  0.195630  0.202110  0.209710  0.215390  0.214540  0.211640  0.214110  0.221280  0.228450  0.231890  0.233840  0.238780  0.244130  0.244030  0.236460  0.225670  0.214680  0.203110  0.192310  0.178420  0.157860  0.135450  0.116180  0.097925  0.078329  0.063454  0.053308  0.041632  0.031569  0.027078  0.024663  0.020589  0.019647  0.026320  0.036783  0.048680  0.059990  0.068935  0.075890  0.080487  0.082525  0.082320  0.082542  0.082612  0.077793  0.067516  0.055819  0.046866  0.039887  0.032300  0.025282  0.020981  0.018817  0.015050  0.008068  0.000632 -0.006615 -0.014592 -0.022118 -0.027020 -0.030168 -0.034102 -0.037423 -0.040608 -0.047995 -0.060402 -0.073321 -0.081810 -0.085629 -0.087679 -0.091754 -0.100940 -0.113710 -0.125520 -0.133970 -0.141130 -0.149140 -0.155860 -0.159750 -0.163010 -0.166780 -0.170270 -0.174240 -0.180950 -0.189450 -0.196790 -0.203410 -0.211260 -0.219560 -0.225370 -0.228730 -0.233580 -0.241850 -0.250710 -0.256070 -0.256350 -0.254480 -0.254910 -0.258620 -0.261950 -0.262130 -0.261460 -0.261700 -0.260300 -0.255070 -0.249710 -0.249930 -0.254080 -0.257700 -0.261650 -0.266200 -0.268010 -0.267600 -0.268780 -0.268230 -0.263290 -0.262050 -0.266510 -0.267310 -0.262360 -0.260050 -0.261970 -0.262060 -0.261930 -0.266450 -0.272480 -0.274150 -0.273190 -0.275560 -0.279590 -0.282030 -0.286890 -0.295150 -0.300010 -0.299420 -0.299520 -0.299390 -0.292820 -0.285150 -0.284910 -0.288620 -0.287260 -0.281960 -0.280550 -0.281460 -0.277520 -0.269320 -0.263480 -0.261520 -0.260880 -0.262850 -0.266940 -0.270220 -0.274530 -0.281810 -0.288830 -0.292190 -0.294870 -0.299200 -0.300940 -0.297890 -0.293870 -0.291580 -0.287240 -0.281070 -0.281180 -0.285930 -0.285360 -0.280860 -0.280190 -0.280120 -0.275940 -0.273690 -0.274390 -0.271370 -0.267840 -0.270680 -0.275730 -0.275210 -0.271260 -0.267870 -0.261570 -0.252400 -0.248280 -0.252390 -0.255490 -0.251530 -0.249210 -0.253370 -0.256570 -0.255530 -0.256910 -0.262900 -0.267250 -0.267900 -0.267880 -0.268140 -0.267850 -0.267350 -0.268990 -0.273130 -0.276110 -0.273930 -0.266630 -0.259330 -0.255900 -0.254170 -0.249290 -0.241060 -0.235640 -0.235940 -0.236680 -0.231200 -0.220290 -0.209260 -0.198540 -0.186790 -0.180540 -0.183510 -0.186930 -0.186940 -0.188090 -0.192430 -0.195930 -0.199680 -0.203870 -0.193710 -0.170530 -0.141370 -0.097939 -0.031831  0.054217  0.138180  0.224910  0.327020  0.442420  0.573460  0.714270  0.875210  1.049300  1.225000  1.414600  1.624900  1.872400  2.138800  2.405100 


; cmd = /home/grad00/soren885/capstone/ShapeletResearch/Execs/FastShapelet /home/grad00/soren885/capstone/Shapelet_Datasets/UCR_Master/CinC_ECG_torso_TRAIN 4 40 820 1 2 10 manhattan 0 1 10 ./replications/CinC_ECG_torso/CinC_ECG_torso_manhattan_normed_NOCID_REP09_tree.txt ./replications/CinC_ECG_torso/CinC_ECG_torso_manhattan_normed_NOCID_REP09_time.txt
; time =>  1159.766  12.647  58.376   4.667 1078.447 
; command = /home/grad00/soren885/capstone/ShapeletResearch/Execs/Classify /home/grad00/soren885/capstone/Shapelet_Datasets/UCR_Master/CinC_ECG_torso_TEST 4 1380 manhattan 0 1 ./replications/CinC_ECG_torso/CinC_ECG_torso_manhattan_normed_NOCID_REP09_tree.txt ./replications/CinC_ECG_torso/CinC_ECG_torso_manhattan_normed_NOCID_REP09_acc.txt
; accuracy= 73.333   Correct:1012 , Wrong: 368


;   == Confusion Matrix ==
;   real |   3    2    4    1 
;   -----+------------------------
;   p  3 | 181   88    1    7 
;   p  2 | 124  229    1   60 
;   p  4 |   3    3  319    0 
;   p  1 |  35   22   24  283 

