;Shapelet Tree 

;random seed:1503426732, rand()=1235125638, rand()=670168940
;command = /home/grad00/soren885/capstone/ShapeletResearch/Execs/FastShapelet /home/grad00/soren885/capstone/Shapelet_Datasets/UCR_Master/CinC_ECG_torso_TRAIN 4 40 820 1 2 10 euclidean 1 0 10 ./replications/CinC_ECG_torso/CinC_ECG_torso_euclidean_unnormed_CID_REP04_tree.txt ./replications/CinC_ECG_torso/CinC_ECG_torso_euclidean_unnormed_CID_REP04_time.txt 

;Local Class:   0  1  2  3 
;Real  Class:   1  3  4  2 

;Node ID class   obj  pos  len  dist_th 
TreeSize: 24 
NonL  1    --     13   85  695  42.5858 ==>   2  12   0  13  /   3   0  10   0 
NonL  2    --      9  1018  377   6.9123 ==>   0   1   0  12  /   2  11   0   1 
NonL  3    --     11   13  645  26.7737 ==>   3   0   0   0  /   0   0  10   0 
Leaf  4     2    
NonL  5    --      5  1001  467  38.3538 ==>   0  11   0   0  /   2   0   0   1 
Leaf  6     1    
Leaf  7     4    
Leaf 10     3    
NonL 11    --      0  610   27  45.6762 ==>   2   0   0   0  /   0   0   0   1 
Leaf 22     1    
Leaf 23     2    

;Shapelet id   <data>
Shapelet   1   0.546590  0.551010  0.523820  0.529620  0.559000  0.579900  0.608370  0.620320  0.595950  0.573340  0.547500  0.519730  0.544550  0.596750  0.618750  0.626310  0.615960  0.569560  0.519240  0.478320  0.452310  0.476560  0.531700  0.554770  0.548900  0.558540  0.582730  0.593270  0.583980  0.560650  0.542840  0.561830  0.587830  0.570890  0.553810  0.579010  0.608870  0.624260  0.624470  0.611960  0.629860  0.656140  0.633200  0.626690  0.678510  0.691340  0.638150  0.593610  0.569910  0.549470  0.550830  0.562720  0.545740  0.520460  0.545810  0.601590  0.598100  0.539450  0.522720  0.549720  0.566710  0.602540  0.650400  0.656380  0.657980  0.660160  0.613330  0.587720  0.617810  0.611610  0.580380  0.585400  0.591310  0.586770  0.588020  0.584540  0.591850  0.592000  0.548330  0.513720  0.519130  0.521500  0.521320  0.521820  0.511600  0.534840  0.584010  0.579680  0.542880  0.549990  0.580410  0.587470  0.587150  0.592240  0.580160  0.556100  0.551380  0.551800  0.524520  0.504610  0.539710  0.585300  0.590970  0.587880  0.588760  0.569030  0.545640  0.523390  0.492270  0.493130  0.519610  0.506000  0.480990  0.515480  0.575090  0.580670  0.525400  0.481140  0.503940  0.551740  0.576760  0.595410  0.589880  0.543180  0.509840  0.488750  0.455730  0.463840  0.487150  0.461840  0.463350  0.518600  0.533580  0.507570  0.487560  0.478910  0.501090  0.520890  0.482490  0.434180  0.419920  0.402060  0.371410  0.352640  0.348300  0.360840  0.385860  0.392780  0.378560  0.385980  0.414980  0.412080  0.386070  0.398580  0.440340  0.453290  0.431350  0.412610  0.420010  0.443720  0.458230  0.453160  0.449310  0.458450  0.452820  0.428230  0.412390  0.384570  0.333210  0.319160  0.354030  0.381180  0.388770  0.385510  0.363460  0.344680  0.353460  0.375950  0.398200  0.421110  0.444600  0.459640  0.452140  0.429080  0.408110  0.384090  0.358460  0.350220  0.352440  0.350350  0.362670  0.387390  0.372830  0.323410  0.321810  0.371570  0.391310  0.386530  0.409640  0.420250  0.381020  0.351200  0.360080  0.348700  0.300590  0.274590  0.287690  0.310730  0.327170  0.315610  0.288710  0.287750  0.282490  0.255020  0.260880  0.288050  0.306450  0.351280  0.387530  0.364350  0.342950  0.354440  0.355550  0.349050  0.353280  0.353690  0.351510  0.351830  0.331450  0.294980  0.286060  0.289530  0.273470  0.293250  0.346450  0.333930  0.276200  0.253400  0.247800  0.255210  0.281760  0.275460  0.247740  0.248510  0.253580  0.252600  0.275090  0.306290  0.320300  0.320880  0.307630  0.278280  0.253530  0.259950  0.293170  0.317840  0.308670  0.277980  0.254570  0.249470  0.252080  0.251850  0.251770  0.249980  0.227500  0.191890  0.187390  0.212810  0.222400  0.216820  0.217660  0.216550  0.220860  0.244580  0.271620  0.288410  0.288460  0.268600  0.245890  0.223570  0.204790  0.232060  0.304780  0.340580  0.303990  0.257630  0.235810  0.208820  0.185500  0.186730  0.180510  0.178870  0.222890  0.254270  0.225150  0.206570  0.221730  0.195230  0.144270  0.168140  0.241450  0.275410  0.292530  0.317450  0.305390  0.279690  0.284040  0.275960  0.238640  0.218370  0.219540  0.215880  0.216040  0.236140  0.256490  0.253340  0.245100  0.258980  0.282720  0.289670  0.281990  0.283260  0.303670  0.324450  0.321190  0.296560  0.284540  0.312800  0.362410  0.395510  0.416330  0.454740  0.506400  0.549670  0.592380  0.637520  0.655270  0.648880  0.667640  0.717570  0.750270  0.759460  0.786030  0.819100  0.819630  0.821160  0.862490  0.904680  0.923060  0.932580  0.904030  0.828360  0.798080  0.848880  0.860020  0.786530  0.752550  0.787590  0.798830  0.780330  0.757650  0.726180  0.733020  0.787130  0.820500  0.819690  0.791860  0.710100  0.615550  0.587610  0.597590  0.566000  0.521160  0.533680  0.565040  0.554690  0.557660  0.626370  0.688340  0.690970  0.694150  0.722210  0.729140  0.712580  0.688880  0.660810  0.659540  0.688900  0.698980  0.669260  0.621060  0.589670  0.591250  0.587580  0.561930  0.553350  0.554020  0.531640  0.515670  0.520760  0.520310  0.528340  0.555000  0.547680  0.475730  0.382520  0.313090  0.247190  0.145110  0.044352 -0.003835 -0.055480 -0.163530 -0.283740 -0.394120 -0.490680 -0.555660 -0.667610 -0.872110 -1.045000 -1.132800 -1.217600 -1.322900 -1.440000 -1.559500 -1.632000 -1.668800 -1.714600 -1.748800 -1.768400 -1.793500 -1.794500 -1.762800 -1.737600 -1.721700 -1.695800 -1.672800 -1.641400 -1.550900 -1.430700 -1.354400 -1.284700 -1.187800 -1.137400 -1.123500 -1.060600 -0.966040 -0.880180 -0.790100 -0.700640 -0.608340 -0.494520 -0.395520 -0.348670 -0.308560 -0.237460 -0.178580 -0.138490 -0.063590  0.030138  0.099174  0.145200  0.147710  0.118960  0.138350  0.191690  0.194110  0.169900  0.192270  0.241360  0.259210  0.250060  0.250260  0.247440  0.208170  0.159430  0.145450  0.151790  0.151570  0.150360  0.150600  0.150020  0.154260  0.146240  0.100400  0.052296  0.053441  0.058246  0.013830 -0.020697 -0.017348 -0.023438 -0.009406  0.041258  0.045992  0.008817  0.009327  0.036990  0.052014  0.052593  0.034803  0.012140  0.012941  0.023525  0.010499 -0.013898 -0.019620 -0.017152 -0.017862 -0.014877 -0.019650 -0.021026  0.002701  0.017264  0.014534  0.033029  0.052973  0.050578  0.051739  0.045308  0.019553  0.023842  0.059363  0.056943  0.020719  0.022410  0.048480  0.036374  0.011217  0.014379  0.018253  0.018002  0.043080  0.075105  0.084058  0.083157  0.085330  0.081628  0.081423  0.101400  0.121980  0.119570  0.099600  0.077261  0.079635  0.108830  0.113600  0.086946  0.077192  0.088767  0.112250  0.144550  0.145940  0.119700  0.113930  0.117340  0.116420  0.122850  0.107780  0.083820  0.100360  0.121790  0.117660  0.118480  0.111410  0.085859  0.077448  0.089488  0.113490  0.146000  0.141600  0.088762  0.065238  0.101110  0.118510  0.092184  0.085051  0.085235  0.055330  0.061470  0.113940  0.113400  0.062422  0.048580  0.073924  0.082539  0.052782  0.018420  0.024507  0.049114  0.037662  0.000119 -0.017323 -0.015855 -0.019633 -0.017945 -0.011093 -0.028403 -0.050675 -0.050636 -0.053980 -0.051837 -0.024624 -0.022261 -0.050404 -0.055060 -0.049822 -0.051293 -0.031501 -0.009427 -0.017086 -0.040131 -0.056727 -0.051326 -0.042522 -0.065476 -0.084766 -0.076399 -0.110440 -0.185620 -0.189720 -0.099912 -0.017253 -0.020477 -0.090674 -0.152520 -0.177450 -0.197020 -0.219660 -0.240010 -0.270510 -0.286370 -0.250110 -0.184050 -0.116130 -0.031502  0.073144  0.189050  0.337070  0.521900  0.695600  0.831970  0.968640  1.134900  1.301400  1.418400  1.463200  1.447800  1.403200  1.359100  1.318400  1.256300  1.150600  0.982580  0.766110  0.575540  0.424320  0.247010  0.070853 -0.059135 -0.218080 -0.442420 -0.686040 -0.943920 -1.221900 -1.527500 -1.867100 -2.161700 -2.379000 -2.632100 -2.942300 -3.197700 -3.386200 -3.569700 -3.748300 -3.917900 -4.112400 -4.353200 -4.619100 -4.897300 -5.241800 -5.671200 -6.088900 -6.463300 -6.874400 -7.305100 -7.671500 -7.960500 -8.138000 -8.150900 -8.030900 -7.813000 -7.502300 -7.147100 -6.784700 
Shapelet   2   0.358930  0.360300  0.360320  0.361850  0.357060  0.344020  0.335580  0.340040  0.351590  0.362640  0.363530  0.352060  0.340720  0.339380  0.339190  0.327220  0.314260  0.317960  0.333280  0.339880  0.328420  0.314860  0.317240  0.331450  0.340470  0.339950  0.340670  0.341070  0.336760  0.340390  0.354460  0.359370  0.346160  0.330910  0.320680  0.314750  0.323850  0.338750  0.334860  0.320940  0.325070  0.343380  0.355430  0.365520  0.378360  0.382840  0.379890  0.379610  0.378520  0.365230  0.346820  0.340210  0.341820  0.336840  0.323670  0.316520  0.320090  0.322140  0.318890  0.318390  0.322260  0.320670  0.316040  0.322080  0.325520  0.309500  0.298870  0.318650  0.342280  0.342730  0.339730  0.341270  0.330260  0.320060  0.330520  0.343410  0.341490  0.339170  0.340210  0.330420  0.315430  0.304070  0.291810  0.280520  0.277840  0.280480  0.280190  0.280210  0.280510  0.271790  0.257680  0.254550  0.267430  0.279240  0.279210  0.280800  0.292670  0.302890  0.301040  0.302030  0.321330  0.340190  0.335830  0.321890  0.320960  0.320390  0.306680  0.299690  0.302000  0.292000  0.280180  0.289750  0.300580  0.288210  0.274810  0.278840  0.282930  0.279440  0.278460  0.281090  0.280890  0.274000  0.258570  0.242680  0.240850  0.242520  0.226280  0.199720  0.183440  0.178920  0.178340  0.185530  0.199300  0.204300  0.197890  0.196020  0.207450  0.219250  0.220660  0.220090  0.221370  0.215630  0.202270  0.195130  0.201080  0.212520  0.225720  0.238200  0.237950  0.218930  0.200060  0.203930  0.218280  0.215520  0.200280  0.196290  0.200320  0.189090  0.166420  0.159310  0.172000  0.179890  0.167880  0.153930  0.157970  0.167130  0.156800  0.130650  0.115290  0.118240  0.122560  0.119460  0.117550  0.121470  0.121390  0.116000  0.119970  0.133810  0.140560  0.139400  0.142050  0.140430  0.126790  0.119390  0.121550  0.113170  0.100490  0.100740  0.098082  0.083787  0.080163  0.081703  0.061970  0.037938  0.036071  0.040647  0.039053  0.046674  0.060127  0.061238  0.060939  0.074341  0.086172  0.080115  0.065864  0.058662  0.058996  0.060395  0.059873  0.058658  0.060703  0.070949  0.092359  0.117010  0.122190  0.094046  0.054298  0.032524  0.022685  0.007414 -0.000201  0.011444  0.022250  0.020579  0.019815  0.019626  0.008562 -0.002735 -0.001531 -0.002362 -0.019088 -0.037668 -0.038962 -0.026492 -0.013313 -0.001741  0.005588 -0.003531 -0.028121 -0.049398 -0.059284 -0.063409 -0.059439 -0.046472 -0.038556 -0.040291 -0.035594 -0.019717 -0.013111 -0.026527 -0.039608 -0.038324 -0.040176 -0.054618 -0.059589 -0.046024 -0.036617 -0.040016 -0.041190 -0.041043 -0.052118 -0.069181 -0.079611 -0.082416 -0.079685 -0.069503 -0.050962 -0.026202 -0.004876 -0.000761 -0.012659 -0.023150 -0.021983 -0.017929 -0.020436 -0.022877 -0.018709 -0.018071 -0.024841 -0.021228 -0.004767 -0.001902 -0.015982 -0.021297 -0.019760 -0.031402 -0.040177 -0.019160  0.016986  0.038015  0.041445  0.039462  0.038167  0.042778  0.055930  0.066060  0.059137  0.044003  0.039831  0.041443  0.031667  0.019774  0.026909  0.043680  0.044219  0.033668  0.038218  0.054986  0.059145  0.056028  0.068019  0.079978  0.069450  0.059716  0.071844  0.082518  0.079827  0.085856  0.100680  0.103180  0.098128  0.098893  0.100650  0.099813  0.100060  0.099138  0.098104  0.105980  0.119200  0.123390  0.118360  0.116990  0.125550  0.138210  0.150370  0.161560  0.164100  0.153160  0.141000  0.139200  0.139670  0.137420  0.144260  0.157590  0.161110  0.160030  0.169580  0.185030  0.196340  0.207880  0.219790  0.223150  0.217740  0.206150  0.190340  0.180250  0.180670  0.178420  0.165740  0.156190  0.158620  0.168560  0.181660  0.185780  0.171790  0.159540  0.168510  0.180290  0.178790  0.183610  0.197820  0.196300  0.179860  0.167760  0.154150  0.128680  0.111440 
Shapelet   3   0.664920  0.631890  0.631890  0.532790  0.433690  0.433690  0.400660  0.301550  0.268520  0.334590  0.334590  0.268520  0.301550  0.367620  0.301550  0.235490  0.169420  0.169420  0.103350  0.070320  0.103350  0.070320 -0.028781 -0.193950 -0.160920 -0.193950 -0.226980 -0.326080 -0.392150 -0.491250 -0.557320 -0.755520  0.764020  0.797060  0.830090  0.896160  0.896160  0.962230  1.061300  1.028300  0.929190  0.830090  0.797060  0.797060  0.830090  0.896160  0.929190  0.929190  0.863130  0.797060  0.830090  0.863130  0.863130  0.830090  0.797060  0.797060  0.830090  0.896160  0.995260  0.995260  0.863130  0.797060  0.863130  0.896160  0.830090  0.764020  0.697960  0.631890  0.664920  0.697960  0.764020  0.730990  0.730990  0.797060  0.830090  0.863130  0.863130  0.896160  0.896160  0.896160  0.830090  0.764020  0.830090  0.830090  0.830090  0.929190  0.962230  0.863130  0.797060  0.764020  0.797060  0.830090  0.830090  0.797060  0.797060  0.863130  0.863130  0.764020  0.764020  0.764020  0.598860  0.598860  0.730990  0.863130  0.863130  0.797060  0.697960  0.664920  0.598860  0.631890  0.764020  0.797060  0.830090  0.863130  0.730990  0.598860  0.664920  0.730990  0.730990  0.598860  0.598860  0.664920  0.697960  0.697960  0.664920  0.730990  0.797060  0.730990  0.697960  0.664920  0.764020  0.863130  0.797060  0.631890  0.532790  0.532790  0.565820  0.730990  0.797060  0.830090  0.830090  0.730990  0.631890  0.598860  0.565820  0.499760  0.499760  0.565820  0.532790  0.565820  0.631890  0.598860  0.631890  0.697960  0.730990  0.697960  0.631890  0.598860  0.664920  0.664920  0.631890  0.598860  0.598860  0.631890  0.631890  0.565820  0.466720  0.466720  0.499760  0.565820  0.565820  0.466720  0.367620  0.433690  0.664920  0.764020  0.697960  0.697960  0.730990  0.664920  0.697960  0.697960  0.664920  0.631890  0.532790  0.499760  0.565820  0.598860  0.565820  0.532790  0.631890  0.598860  0.598860  0.598860  0.565820  0.664920  0.730990  0.730990  0.730990  0.764020  0.730990  0.565820  0.532790  0.532790  0.565820  0.532790  0.532790  0.532790  0.532790  0.565820  0.565820  0.532790  0.598860  0.664920  0.730990  0.730990  0.730990  0.730990  0.730990  0.664920  0.631890  0.598860  0.631890  0.664920  0.598860  0.532790  0.565820  0.532790  0.433690  0.433690  0.466720  0.565820  0.598860  0.598860  0.631890  0.631890  0.664920  0.631890  0.631890  0.664920  0.565820  0.499760  0.565820  0.664920  0.598860  0.499760  0.466720  0.466720  0.466720  0.466720  0.466720  0.532790  0.631890  0.664920  0.598860  0.565820  0.532790  0.565820  0.565820  0.598860  0.532790  0.499760  0.499760  0.598860  0.664920  0.664920  0.598860  0.565820  0.466720  0.499760  0.598860  0.664920  0.631890  0.532790  0.466720  0.433690  0.466720  0.565820  0.598860  0.565820  0.532790  0.499760  0.565820  0.565820  0.631890  0.664920  0.598860  0.499760  0.433690  0.400660  0.367620  0.400660  0.433690  0.433690  0.466720  0.499760  0.433690  0.433690  0.532790  0.598860  0.598860  0.631890  0.598860  0.631890  0.631890  0.598860  0.532790  0.433690  0.400660  0.400660  0.433690  0.466720  0.400660  0.400660  0.400660  0.367620  0.400660  0.499760  0.532790  0.499760  0.532790  0.565820  0.532790  0.532790  0.664920  0.697960  0.565820  0.433690  0.433690  0.565820  0.532790  0.499760  0.367620  0.367620  0.466720  0.532790  0.565820  0.697960  0.664920  0.499760  0.466720  0.400660  0.466720  0.466720  0.499760  0.499760  0.433690  0.400660  0.433690  0.466720  0.433690  0.433690  0.400660  0.433690  0.499760  0.499760  0.532790  0.466720  0.499760  0.532790  0.499760  0.499760  0.466720  0.499760  0.499760  0.433690  0.367620  0.367620  0.367620  0.367620  0.367620  0.367620  0.433690  0.400660  0.235490  0.169420  0.301550  0.433690  0.565820  0.532790  0.565820  0.565820  0.532790  0.532790  0.466720  0.433690  0.400660  0.400660  0.400660  0.466720  0.565820  0.631890  0.565820  0.532790  0.532790  0.499760  0.499760  0.499760  0.532790  0.433690  0.334590  0.334590  0.466720  0.466720  0.400660  0.400660  0.400660  0.400660  0.433690  0.466720  0.400660  0.400660  0.466720  0.466720  0.400660  0.400660  0.433690  0.466720  0.532790  0.565820  0.532790  0.532790  0.499760  0.499760  0.565820  0.532790  0.466720  0.400660  0.400660  0.433690  0.466720  0.400660  0.400660  0.400660  0.400660  0.367620  0.301550  0.301550  0.367620  0.334590  0.301550  0.268520  0.235490  0.169420  0.103350  0.004253 -0.061815 -0.127880 -0.193950 -0.160920 -0.260020 -0.392150 -0.491250 -0.425180 -0.392150 -0.425180 -0.458220 -0.425180 -0.458220 -0.557320 -0.590350 -0.623390 -0.557320 -0.590350 -0.656420 -0.590350 -0.557320 -0.623390 -0.722490 -0.689450 -0.623390 -0.590350 -0.656420 -0.722490 -0.656420 -0.491250 -0.425180 -0.293050 -0.293050 -0.359120 -0.392150 -0.392150 -0.392150 -0.392150 -0.392150 -0.359120 -0.425180 -0.623390 -0.755520 -0.821590 -0.755520 -0.821590 -0.920690 -0.953720 -1.052800 -1.118900 -1.019800 -0.887650 -0.788550 -0.788550 -0.722490 -0.656420 -0.557320 -0.392150 -0.293050 -0.193950 -0.094848 -0.094848 -0.160920 -0.226980 -0.293050 -0.226980 -0.127880 -0.127880 -0.293050 -0.425180 -0.458220 -0.491250 -0.491250 -0.458220 -0.293050 -0.193950 -0.160920 -0.226980 -0.160920 -0.094848 -0.061815 -0.127880 -0.160920 -0.094848 -0.193950 -0.226980 -0.226980 -0.226980 -0.326080 -0.260020 -0.160920 -0.061815  0.037286  0.103350  0.103350  0.070320  0.070320  0.169420  0.235490  0.334590  0.334590  0.301550  0.400660  0.499760  0.565820  0.532790  0.532790  0.532790  0.499760  0.532790  0.565820  0.764020  0.929190  0.863130  0.664920  0.532790  0.565820  0.697960  0.664920  0.532790  0.499760  0.532790  0.565820  0.565820  0.532790  0.598860  0.631890  0.664920  0.631890  0.631890  0.664920  0.697960  0.730990  0.730990  0.797060  0.730990  0.598860  0.598860  0.598860  0.565820  0.466720  0.433690  0.400660  0.466720  0.631890  0.764020  0.730990  0.664920  0.532790  0.499760  0.598860  0.565820  0.565820  0.631890  0.664920  0.598860  0.631890  0.631890  0.631890  0.631890  0.664920  0.565820  0.499760  0.433690  0.400660  0.301550  0.202450  0.235490  0.202450  0.037286 -0.061815 -0.061815 -0.160920 -0.326080 -0.590350 -0.854620 -1.085900 -1.284100 -1.449200 -1.614400 -1.977800 -2.407200 -2.902700 -3.266100 -3.497300 -3.662500 -3.728500 -3.662500 -3.728500 -3.860700 -3.893700 -3.827600 -3.827600 -4.091900 -4.455300 -4.785600 -5.116000 -5.347200 -5.578400 
Shapelet   5  -0.427000 -0.426930 -0.426520 -0.427040 -0.424950 -0.414050 -0.404070 -0.406590 -0.413360 -0.415740 -0.416120 -0.412870 -0.403520 -0.394690 -0.392190 -0.393110 -0.393260 -0.391780 -0.386660 -0.375570 -0.363630 -0.358980 -0.359300 -0.357310 -0.352890 -0.345910 -0.335670 -0.330770 -0.334680 -0.337290 -0.336370 -0.336760 -0.333320 -0.323970 -0.318890 -0.321930 -0.325340 -0.325260 -0.325210 -0.324820 -0.318000 -0.305670 -0.295670 -0.288120 -0.282210 -0.287090 -0.299770 -0.302530 -0.295770 -0.291810 -0.289380 -0.284610 -0.277370 -0.267650 -0.262630 -0.263240 -0.260180 -0.257230 -0.261310 -0.264190 -0.262590 -0.262640 -0.262070 -0.255520 -0.244070 -0.232940 -0.228890 -0.232800 -0.238210 -0.240300 -0.236810 -0.228510 -0.222630 -0.222840 -0.223790 -0.223170 -0.223320 -0.222010 -0.215970 -0.208140 -0.202980 -0.200030 -0.196290 -0.191850 -0.188750 -0.185240 -0.178340 -0.170840 -0.167060 -0.166900 -0.166110 -0.158470 -0.147060 -0.144690 -0.149480 -0.146220 -0.135870 -0.128690 -0.120280 -0.106560 -0.098971 -0.100400 -0.097016 -0.088720 -0.087003 -0.087138 -0.082899 -0.079540 -0.073960 -0.061956 -0.052015 -0.046358 -0.038579 -0.030203 -0.023114 -0.011467  0.003099  0.009104  0.008164  0.015073  0.030281  0.041300  0.045853  0.049234  0.053002  0.058756  0.068623  0.080138  0.091102  0.103000  0.114340  0.124390  0.138020  0.153530  0.163380  0.168280  0.172090  0.175300  0.180210  0.188210  0.198040  0.212130  0.231970  0.247960  0.252130  0.256080  0.270350  0.283770  0.290400  0.302710  0.319390  0.325350  0.327920  0.344100  0.363440  0.372000  0.379350  0.387260  0.387080  0.389690  0.403040  0.415740  0.424510  0.432280  0.438420  0.448970  0.465340  0.480720  0.494570  0.505770  0.512830  0.520980  0.528760  0.531760  0.537720  0.550760  0.563000  0.571570  0.579570  0.586760  0.594450  0.607420  0.623720  0.632790  0.631240  0.631230  0.641580  0.653320  0.657670  0.659640  0.664740  0.674050  0.687690  0.698760  0.702450  0.705470  0.710200  0.715800  0.725870  0.732950  0.731540  0.734900  0.744200  0.747800  0.751510  0.761210  0.769050  0.773690  0.778290  0.783890  0.794500  0.806630  0.811200  0.810830  0.812270  0.815200  0.818520  0.823650  0.833210  0.845780  0.851830  0.847790  0.842820  0.840420  0.838610  0.842320  0.852160  0.862730  0.873160  0.880240  0.882880  0.887600  0.891400  0.890080  0.892490  0.897070  0.893210  0.888380  0.891650  0.895460  0.896770  0.903290  0.914620  0.921280  0.919220  0.914110  0.912670  0.913970  0.913520  0.912450  0.914130  0.917450  0.919480  0.919510  0.921640  0.929450  0.936990  0.940130  0.942990  0.941500  0.932580  0.929660  0.937490  0.945180  0.948520  0.947300  0.942480  0.941170  0.941930  0.937810  0.932830  0.930460  0.929410  0.932700  0.936480  0.932580  0.926540  0.924880  0.921480  0.912100  0.900730  0.892270  0.888240  0.884670  0.880200  0.877880  0.872630  0.860630  0.850580  0.844680  0.836720  0.830040  0.828730  0.828660  0.827130  0.821540  0.809770  0.799000  0.793960  0.786740  0.774470  0.765030  0.757950  0.745560  0.729200  0.713870  0.700740  0.691200  0.683740  0.675710  0.668910  0.661640  0.650670  0.639680  0.628690  0.613800  0.599460  0.588500  0.575170  0.559120  0.547550  0.542900  0.538610  0.527240  0.511030  0.497600  0.486540  0.474710  0.463970  0.452810  0.440140  0.430360  0.419410  0.402850  0.390730  0.384090  0.370890  0.355570  0.348740  0.343860  0.332720  0.317370  0.303470  0.294880  0.287710  0.276930  0.265320  0.254140  0.243930  0.239630  0.236260  0.227690  0.222530  0.219410  0.208320  0.198750  0.195990  0.189570  0.181540  0.174440  0.162740  0.153120  0.146260  0.131810  0.118350  0.116140  0.112320  0.100360  0.093534  0.094788  0.090656  0.078492  0.066742  0.055024  0.043662  0.040792  0.042762  0.038158  0.029177  0.024461  0.025221  0.028914  0.031514  0.026862  0.015384  0.005206 -0.001788 -0.009572 -0.016272 -0.019428 -0.020396 -0.019013 -0.019136 -0.028172 -0.041810 -0.047928 -0.044796 -0.042065 -0.047091 -0.055622 -0.061589 -0.069580 -0.079601 -0.081764 -0.081521 -0.089026 -0.094523 -0.093274 -0.093459 -0.092053 -0.087720 -0.087097 -0.088014 -0.092549 -0.104860 -0.111290 -0.104990 -0.099158 -0.099815 -0.104160 -0.111720 -0.118450 -0.121360 -0.124660 -0.128860 -0.127350 -0.119570 -0.114350 -0.115710 -0.117130 -0.113960 -0.110200 -0.109710 -0.110600 -0.110160 -0.109610 -0.111630 -0.115750 -0.117240 -0.113740 -0.110150 -0.110130 -0.109430 -0.104490 -0.097056 -0.090011 -0.087507 -0.091076 -0.094564 -0.093125 -0.089167 -0.086769 -0.087535 -0.088369 -0.086460 -0.087624 -0.095340 -0.101140 -0.098636 -0.088795 -0.073098 -0.058866 -0.056491 -0.063965 -0.070714 -0.071757 -0.068712 
Shapelet  11  -3.576900 -3.983700 -4.443500 -4.797300 -4.974100 -4.726500 -3.895300 -2.816500 -1.719900 -0.534990  0.791450  2.011800  2.913700  3.780300  4.629300  5.283600  5.796500  6.486300  7.229100  7.883400  8.590900  9.457500 10.200000 10.536000 10.483000 10.147000  9.705100 


; cmd = /home/grad00/soren885/capstone/ShapeletResearch/Execs/FastShapelet /home/grad00/soren885/capstone/Shapelet_Datasets/UCR_Master/CinC_ECG_torso_TRAIN 4 40 820 1 2 10 euclidean 1 0 10 ./replications/CinC_ECG_torso/CinC_ECG_torso_euclidean_unnormed_CID_REP04_tree.txt ./replications/CinC_ECG_torso/CinC_ECG_torso_euclidean_unnormed_CID_REP04_time.txt
; time =>  718.525  12.983  58.379   4.299 637.349 
; command = /home/grad00/soren885/capstone/ShapeletResearch/Execs/Classify /home/grad00/soren885/capstone/Shapelet_Datasets/UCR_Master/CinC_ECG_torso_TEST 4 1380 euclidean 1 0 ./replications/CinC_ECG_torso/CinC_ECG_torso_euclidean_unnormed_CID_REP04_tree.txt ./replications/CinC_ECG_torso/CinC_ECG_torso_euclidean_unnormed_CID_REP04_acc.txt
; accuracy= 66.232   Correct:914 , Wrong: 466


;   == Confusion Matrix ==
;   real |   3    2    4    1 
;   -----+------------------------
;   p  3 | 189   50   10   70 
;   p  2 |  83  224   11   58 
;   p  4 |  49   64  324   45 
;   p  1 |  22    4    0  177 

