;Shapelet Tree 

;random seed:1503428943, rand()=1441654699, rand()=1122720285
;command = /home/grad00/soren885/capstone/ShapeletResearch/Execs/FastShapelet /home/grad00/soren885/capstone/Shapelet_Datasets/UCR_Master/CinC_ECG_torso_TRAIN 4 40 820 1 2 10 euclidean 1 0 10 ./replications/CinC_ECG_torso/CinC_ECG_torso_euclidean_unnormed_CID_REP07_tree.txt ./replications/CinC_ECG_torso/CinC_ECG_torso_euclidean_unnormed_CID_REP07_time.txt 

;Local Class:   0  1  2  3 
;Real  Class:   1  3  4  2 

;Node ID class   obj  pos  len  dist_th 
TreeSize: 16 
NonL  1    --     37    0  725  43.5203 ==>   0  12   0  12  /   5   0  10   1 
NonL  2    --      5  1106  195   4.7022 ==>   0   0   0  10  /   0  12   0   2 
NonL  3    --      1   73  343  14.4359 ==>   0   0  10   0  /   5   0   0   1 
Leaf  4     2    
NonL  5    --      6    7  775  44.4588 ==>   0  12   0   0  /   0   0   0   2 
Leaf  6     4    
NonL  7    --      2  577  191  14.7576 ==>   0   0   0   1  /   5   0   0   0 
Leaf 10     3    
Leaf 11     2    
Leaf 14     2    
Leaf 15     1    

;Shapelet id   <data>
Shapelet   1   0.400230  0.401350  0.373640  0.334360  0.328320  0.347790  0.346480  0.376460  0.369310  0.343160  0.327530  0.327270  0.348650  0.385400  0.403360  0.400630  0.407170  0.405330  0.363830  0.320750  0.318560  0.329360  0.326150  0.331220  0.353450  0.371400  0.378400  0.378300  0.367080  0.350550  0.345390  0.355810  0.371840  0.381430  0.376870  0.361820  0.347370  0.333240  0.313270  0.300010  0.316940  0.360700  0.396510  0.398700  0.379550  0.369670  0.378020  0.382550  0.368190  0.352450  0.351670  0.350440  0.335160  0.322370  0.323930  0.327340  0.325550  0.324920  0.325620  0.325320  0.326270  0.325750  0.322690  0.328130  0.344420  0.355060  0.351890  0.347930  0.351920  0.353620  0.347910  0.348790  0.363810  0.377240  0.378040  0.376300  0.377320  0.368980  0.350440  0.343210  0.357550  0.374030  0.376720  0.376360  0.379460  0.373220  0.356910  0.344280  0.328170  0.297060  0.271200  0.270270  0.277500  0.275140  0.278920  0.304510  0.336660  0.361600  0.392290  0.432350  0.453060  0.440640  0.420690  0.407000  0.388140  0.376460  0.398650  0.439030  0.455700  0.442410  0.427850  0.427040  0.426120  0.411590  0.390460  0.377290  0.375630  0.375920  0.363410  0.338810  0.325400  0.330240  0.323520  0.292060  0.267820  0.270910  0.285110  0.300630  0.318050  0.327000  0.325820  0.326490  0.325740  0.320190  0.331390  0.364110  0.385690  0.378330  0.360220  0.349810  0.349710  0.350110  0.331400  0.294410  0.274080  0.288140  0.305630  0.302020  0.301570  0.327800  0.353620  0.341590  0.307220  0.298740  0.325450  0.349980  0.347590  0.330800  0.321110  0.324860  0.337780  0.355460  0.372360  0.375600  0.355210  0.328120  0.328340  0.359820  0.385310  0.379960  0.367220  0.378710  0.400640  0.394940  0.360900  0.332680  0.325530  0.326090  0.325180  0.325200  0.326220  0.325680  0.316220  0.293000  0.274620  0.282090  0.298990  0.302340  0.299390  0.288500  0.255060  0.225310  0.231720  0.251230  0.262950  0.289250  0.322060  0.319980  0.299350  0.308480  0.333540  0.331900  0.310360  0.300100  0.301950  0.297300  0.281610  0.264330  0.250190  0.235430  0.220960  0.218910  0.232720  0.247870  0.251790  0.248600  0.247330  0.253190  0.269990  0.291190  0.300230  0.297840  0.305440  0.323240  0.317450  0.273030  0.229060  0.229490  0.263110  0.289960  0.299880  0.302780  0.298310  0.295880  0.310840  0.325390  0.315090  0.297690  0.297270  0.301400  0.299800  0.308490  0.327890  0.333070  0.317000  0.301680  0.299810  0.299950  0.297430  0.304530  0.321300  0.329710  0.325580  0.323140  0.326920  0.327670  0.319390  0.301810  0.273850  0.242320  0.224820  0.225260  0.224620  0.218270  0.226590  0.246030  0.244730  0.226000  0.228020  0.251290  0.257700  0.242280  0.242380  0.277990  0.326840  0.362020  0.382520  0.397780  0.406430  0.402350  0.388000  0.373330  0.371810  0.386320  0.401060  0.403510  0.401950  0.403300  0.397180  0.379880  0.362660  0.349270  0.334600  0.318520  0.303710  0.288890  0.273660  0.258140  0.245170  0.245290  0.261160  0.274600  0.274360  0.276880  0.293200  0.306590  0.301160  0.284550  0.272860  0.272390  0.277170  0.275600  0.269460  0.277740  0.307780  0.338730  0.350790  0.349440  0.351760  0.365950  0.381970  0.380800  0.362390  0.350950  0.353760  0.345390  0.313590  0.277170  0.250110  0.231330  0.222590  0.223210  0.223310  0.223210  0.234220  0.252300  0.255660  0.239490  0.224870  0.222760  0.223970  0.233730  0.265630  0.297190  0.294570  0.273660  0.270170  0.276430  0.274540  0.284450  0.325190  0.368680  0.372680  0.339950  0.308990  0.300290  0.293670  0.266850  0.234060  0.215940  0.201500  0.173400  0.143280  0.127420  0.116370  0.100290  0.083645  0.069922  0.065583  0.077948  0.094464  0.096437  0.096647  0.111680  0.125030  0.124370  0.116600  0.097670  0.065430  0.041909  0.042714  0.048785  0.046358  0.037485  0.014394 -0.018161 -0.036201 -0.031789 -0.032757 -0.061190 -0.105320 -0.154700 -0.215950 -0.293270 -0.365320 -0.403960 -0.414870 -0.428600 -0.465320 -0.514120 -0.551070 -0.568300 -0.568280 -0.557950 -0.541540 -0.514900 -0.481350 -0.462500 -0.468720 -0.466970 -0.427830 -0.380840 -0.362640 -0.359330 -0.342080 -0.312790 -0.281840 -0.230240 -0.145360 -0.052668  0.012346  0.046290  0.075050  0.109710  0.154970  0.207380  0.247970  0.268140  0.277170  0.279640  0.262570  0.228280  0.181820  0.103560 -0.004083 -0.102080 -0.171950 -0.240410 -0.320820 -0.377560 -0.384510 -0.365970 -0.351360 -0.335080 -0.315600 -0.310400 -0.298270 -0.240740 -0.158830 -0.094634 -0.038373  0.024345  0.070809  0.094864  0.114990  0.121380  0.105160  0.091648  0.095409  0.099604  0.096482  0.107510  0.138010  0.167640  0.192360  0.227700  0.265600  0.273320  0.254630  0.239430  0.223140  0.191750  0.167900  0.170340  0.171230  0.148560  0.133260  0.157850  0.205690  0.243870  0.271670  0.294630  0.299490  0.295590  0.310280  0.326140  0.306570  0.270880  0.254800  0.241170  0.207600  0.177820  0.173040  0.175900  0.170010  0.168820  0.188920  0.223350  0.256080  0.281360  0.297140  0.301260  0.300090  0.300790  0.299300  0.296850  0.310340  0.345050  0.382140  0.404620  0.418670  0.436110  0.451050  0.454480  0.452710  0.452150  0.454750  0.471040  0.492130  0.477360  0.427250  0.395230  0.384270  0.353140  0.325580  0.355720  0.416640  0.447600  0.461640  0.498260  0.540780  0.554920  0.551820  0.561760  0.578310  0.580940  0.580690  0.594560  0.612480  0.625900  0.656000  0.710700  0.753760  0.752240  0.718950  0.685320  0.656810  0.625120  0.598740  0.583770  0.575750  0.579100  0.595250  0.606710  0.605780  0.606310  0.606270  0.600220  0.608190  0.627810  0.625800  0.607350  0.611040  0.632580  0.637000  0.625330  0.610430  0.591690  0.580010  0.581290  0.576240  0.559070  0.551180  0.554400  0.562990  0.587600  0.606890  0.597460  0.602000  0.642000  0.654070  0.629670  0.649270  0.701860  0.703840  0.680540  0.694550  0.709320  0.688540  0.668350  0.655280  0.623980  0.600030  0.603570  0.601580  0.580390  0.562280  0.550710  0.534610  0.524520  0.528600  0.532130  0.527630  0.525630  0.535860  0.552220  0.566720  0.582760  0.599370  0.607670  0.606080  0.604760  0.605260  0.593710  0.570000  0.554700  0.561810  0.580490  0.595790  0.610840  0.627320  0.630050  0.607160  0.571610  0.552400  0.565880  0.601550  0.629540  0.626790  0.599060  0.566920  0.544690  0.531310  0.518110  0.501460  0.485120  0.472920  0.457720  0.436990  0.427360  0.438900  0.459960  0.474460  0.485580  0.503420  0.530880  0.563340  0.579830  0.575690  0.578610  0.605220  0.637270  0.663830  0.709520  0.774330  0.820050  0.836280  0.858660  0.914550  0.976210  1.014800  1.040300  1.059100  1.062300  1.059700  1.085000  1.141500  1.210500  1.299500  1.408100  1.500400  1.546300  1.562400  1.577400  1.594100  1.604400  1.621300  1.645800  1.646900  1.618800  1.580200  1.534800  1.454700  1.325700  1.148700  0.895770  0.588200  0.269040 -0.048012 -0.361800 -0.676170 -0.972960 -1.283700 -1.629200 -2.004000 -2.421300 -2.855600 -3.303900 -3.759000 -4.214400 -4.660200 -5.089100 -5.555400 -6.080600 -6.626700 -7.130400 -7.549700 -7.893200 -8.154700 -8.331600 -8.437600 -8.465800 -8.377900 -8.142500 -7.791100 -7.405500 -7.026900 -6.647700 -6.242500 -5.809700 -5.396200 -5.012300 -4.636100 -4.197900 -3.635600 
Shapelet   2   0.076980  0.081808  0.088556  0.096490  0.101190  0.099072  0.095070  0.096463  0.101870  0.105490  0.109000  0.112980  0.114130  0.113610  0.113350  0.113460  0.113370  0.114080  0.113670  0.109410  0.107110  0.110990  0.117350  0.119940  0.118880  0.120560  0.124410  0.127680  0.131740  0.136610  0.138570  0.137420  0.141290  0.149700  0.154710  0.157890  0.164380  0.173630  0.180860  0.185730  0.188820  0.188520  0.189070  0.192990  0.198120  0.201250  0.201190  0.201070  0.201020  0.200870  0.201140  0.203150  0.208670  0.212890  0.213200  0.213280  0.218100  0.227630  0.235450  0.240530  0.244140  0.247330  0.251620  0.255240  0.258460  0.262060  0.268080  0.276460  0.283790  0.290570  0.294380  0.294640  0.295010  0.297590  0.302250  0.305580  0.310400  0.318930  0.325380  0.325910  0.324320  0.329500  0.337710  0.339720  0.338790  0.341060  0.347930  0.355430  0.362900  0.370460  0.374250  0.377160  0.380910  0.385060  0.388910  0.391690  0.396260  0.399980  0.402560  0.407100  0.413760  0.421610  0.428480  0.436940  0.444430  0.445850  0.444980  0.444500  0.444920  0.444880  0.446540  0.451890  0.455660  0.458370  0.462170  0.467110  0.470350  0.469280  0.470820  0.474900  0.476890  0.476560  0.477580  0.484540  0.492180  0.497410  0.501060  0.504150  0.508190  0.508490  0.506090  0.506760  0.513040  0.520840  0.521530  0.518710  0.519120  0.523310  0.526620  0.523480  0.517690  0.510310  0.501690  0.495480  0.491010  0.487640  0.483630  0.480840  0.477120  0.468810  0.462860  0.459650  0.453000  0.441070  0.428160  0.418890  0.413370  0.415200  0.419700  0.418310  0.413490  0.406680  0.396650  0.385070  0.378660  0.376450  0.369510  0.360970  0.353760  0.346150  0.339260  0.334590  0.331350  0.324170  0.313680  0.302730  0.292680  0.288330  0.288330  0.287880  0.283750  0.276550  0.269130  0.261080  0.255120  0.251990  0.247470  0.238310  0.225970  0.217100  0.210110  0.201400  0.195140  0.191980  0.186210 
Shapelet   3   0.015116  0.015335  0.015069  0.015039  0.015665  0.014768  0.014976  0.016259  0.014040  0.014964  0.017594  0.011739  0.015318  0.034737  0.040429  0.040472  0.058676  0.063479  0.036686  0.016375  0.016624  0.014274  0.012190  0.026618  0.041750  0.041366  0.038540  0.040497  0.040311  0.039713  0.039887  0.039334  0.049203  0.073144  0.089022  0.088864  0.091642  0.090898  0.073313  0.063091  0.064820  0.062274  0.071851  0.089409  0.090815  0.090778  0.089369  0.071804  0.062220  0.064824  0.063065  0.073353  0.090946  0.091656  0.088338  0.089774  0.089261  0.091789  0.087353  0.069242  0.060021  0.067767  0.084697  0.105870  0.115510  0.114340  0.116880  0.110250  0.091750  0.085352  0.094121  0.112140  0.134620  0.136030  0.115490  0.109290  0.119020  0.114630  0.096414  0.086830  0.089744  0.090332  0.092707  0.116920  0.140100  0.128880  0.113910  0.116230  0.103650  0.089286  0.106820  0.122520  0.111460  0.110170  0.129900  0.140140  0.139040  0.141870  0.135480  0.117020  0.111080  0.115950  0.114880  0.113620  0.114930  0.114510  0.114590  0.114170  0.114380  0.115690  0.112520  0.114420  0.131200  0.143580  0.139000  0.136620  0.143130  0.138090  0.119160  0.116880  0.143360  0.163760  0.160560  0.167110  0.186910  0.181650  0.160690  0.161220  0.169140  0.161370  0.161020  0.179900  0.190040  0.188750  0.191850  0.183980  0.165680  0.162110  0.164200  0.163650  0.178070  0.193860  0.189380  0.185160  0.193190  0.188920  0.170020  0.162480  0.164130  0.162320  0.171910  0.190270  0.192150  0.185500  0.190080  0.192370  0.177700  0.162400  0.162410  0.166610  0.162880  0.162030  0.175770  0.192460  0.191790  0.174580  0.161700  0.163230  0.166560  0.162100  0.162960  0.178140  0.195810  0.212630  0.220840  0.203690  0.189020  0.193040  0.178520  0.164190  0.181940  0.189540  0.189650  0.209910  0.207430  0.187940  0.189540  0.179330  0.163760  0.181260  0.195270  0.187410  0.187490  0.190510  0.188680  0.189050  0.188000  0.190020  0.190230  0.183940  0.195080  0.212910  0.211470  0.219900  0.238180  0.226600  0.209150  0.213340  0.214580  0.216720  0.238060  0.258090  0.268610  0.288900  0.310040  0.311800  0.313900  0.330980  0.345500  0.366110  0.401430  0.424160  0.441050  0.475400  0.503350  0.513730  0.530220  0.551180  0.564350  0.580900  0.602950  0.611700  0.610310  0.621720  0.642590  0.658680  0.674430  0.691930  0.708780  0.726130  0.741120  0.759060  0.779420  0.785100  0.785160  0.799700  0.818490  0.835490  0.854040  0.860580  0.860070  0.875290  0.891840  0.882110  0.862370  0.858690  0.859100  0.857040  0.869410  0.887530  0.903220  0.925050  0.933800  0.931770  0.947960  0.959240  0.956920  0.981050  1.020500  1.052800  1.100100  1.146500  1.157700  1.164400  1.198800  1.231300  1.245500  1.270500  1.306800  1.337200  1.380200  1.432900  1.467700  1.496600  1.533400  1.566600  1.598800  1.634000  1.666600  1.701100  1.733400  1.750100  1.761400  1.783700  1.801700  1.800800  1.807400  1.842900  1.884100  1.907600  1.924200  1.943600  1.953400  1.952700  1.952200  1.951000  1.952600  1.945900  1.904700  1.855200  1.824200  1.773900  1.704500  1.652700  1.596200  1.527800  1.488400  1.466400  1.426900  1.389400  1.367100  1.323300  1.253600  1.197200  1.147100  1.078700  1.016500  0.975080  0.941040  0.918380  0.905150  0.888190  0.870590  0.853400  0.836620  0.831450  0.835880  0.835650  0.822700  0.800400  0.785860  0.774890  0.743370 
Shapelet   5   0.261520  0.285420  0.289680  0.281220  0.285370  0.289360  0.279400  0.285750  0.311930  0.319060  0.319180  0.341770  0.357440  0.352240  0.352260  0.345990  0.317540  0.308240  0.336590  0.352420  0.347730  0.366180  0.386440  0.383340  0.398300  0.420250  0.416750  0.437650  0.490320  0.517470  0.522600  0.519720  0.497700  0.473980  0.451110  0.425170  0.418520  0.419350  0.415570  0.433090  0.454270  0.452630  0.462830  0.488900  0.490140  0.489960  0.524880  0.535900  0.483690  0.453650  0.480320  0.479160  0.451590  0.470460  0.509680  0.520590  0.519080  0.528230  0.559360  0.588550  0.566740  0.513930  0.489230  0.478780  0.448510  0.440970  0.488350  0.521500  0.497680  0.477080  0.490080  0.511800  0.539080  0.554200  0.532250  0.498960  0.486910  0.507460  0.546590  0.551010  0.523820  0.529620  0.559000  0.579900  0.608370  0.620320  0.595950  0.573340  0.547500  0.519730  0.544550  0.596750  0.618750  0.626310  0.615960  0.569560  0.519240  0.478320  0.452310  0.476560  0.531700  0.554770  0.548900  0.558540  0.582730  0.593270  0.583980  0.560650  0.542840  0.561830  0.587830  0.570890  0.553810  0.579010  0.608870  0.624260  0.624470  0.611960  0.629860  0.656140  0.633200  0.626690  0.678510  0.691340  0.638150  0.593610  0.569910  0.549470  0.550830  0.562720  0.545740  0.520460  0.545810  0.601590  0.598100  0.539450  0.522720  0.549720  0.566710  0.602540  0.650400  0.656380  0.657980  0.660160  0.613330  0.587720  0.617810  0.611610  0.580380  0.585400  0.591310  0.586770  0.588020  0.584540  0.591850  0.592000  0.548330  0.513720  0.519130  0.521500  0.521320  0.521820  0.511600  0.534840  0.584010  0.579680  0.542880  0.549990  0.580410  0.587470  0.587150  0.592240  0.580160  0.556100  0.551380  0.551800  0.524520  0.504610  0.539710  0.585300  0.590970  0.587880  0.588760  0.569030  0.545640  0.523390  0.492270  0.493130  0.519610  0.506000  0.480990  0.515480  0.575090  0.580670  0.525400  0.481140  0.503940  0.551740  0.576760  0.595410  0.589880  0.543180  0.509840  0.488750  0.455730  0.463840  0.487150  0.461840  0.463350  0.518600  0.533580  0.507570  0.487560  0.478910  0.501090  0.520890  0.482490  0.434180  0.419920  0.402060  0.371410  0.352640  0.348300  0.360840  0.385860  0.392780  0.378560  0.385980  0.414980  0.412080  0.386070  0.398580  0.440340  0.453290  0.431350  0.412610  0.420010  0.443720  0.458230  0.453160  0.449310  0.458450  0.452820  0.428230  0.412390  0.384570  0.333210  0.319160  0.354030  0.381180  0.388770  0.385510  0.363460  0.344680  0.353460  0.375950  0.398200  0.421110  0.444600  0.459640  0.452140  0.429080  0.408110  0.384090  0.358460  0.350220  0.352440  0.350350  0.362670  0.387390  0.372830  0.323410  0.321810  0.371570  0.391310  0.386530  0.409640  0.420250  0.381020  0.351200  0.360080  0.348700  0.300590  0.274590  0.287690  0.310730  0.327170  0.315610  0.288710  0.287750  0.282490  0.255020  0.260880  0.288050  0.306450  0.351280  0.387530  0.364350  0.342950  0.354440  0.355550  0.349050  0.353280  0.353690  0.351510  0.351830  0.331450  0.294980  0.286060  0.289530  0.273470  0.293250  0.346450  0.333930  0.276200  0.253400  0.247800  0.255210  0.281760  0.275460  0.247740  0.248510  0.253580  0.252600  0.275090  0.306290  0.320300  0.320880  0.307630  0.278280  0.253530  0.259950  0.293170  0.317840  0.308670  0.277980  0.254570  0.249470  0.252080  0.251850  0.251770  0.249980  0.227500  0.191890  0.187390  0.212810  0.222400  0.216820  0.217660  0.216550  0.220860  0.244580  0.271620  0.288410  0.288460  0.268600  0.245890  0.223570  0.204790  0.232060  0.304780  0.340580  0.303990  0.257630  0.235810  0.208820  0.185500  0.186730  0.180510  0.178870  0.222890  0.254270  0.225150  0.206570  0.221730  0.195230  0.144270  0.168140  0.241450  0.275410  0.292530  0.317450  0.305390  0.279690  0.284040  0.275960  0.238640  0.218370  0.219540  0.215880  0.216040  0.236140  0.256490  0.253340  0.245100  0.258980  0.282720  0.289670  0.281990  0.283260  0.303670  0.324450  0.321190  0.296560  0.284540  0.312800  0.362410  0.395510  0.416330  0.454740  0.506400  0.549670  0.592380  0.637520  0.655270  0.648880  0.667640  0.717570  0.750270  0.759460  0.786030  0.819100  0.819630  0.821160  0.862490  0.904680  0.923060  0.932580  0.904030  0.828360  0.798080  0.848880  0.860020  0.786530  0.752550  0.787590  0.798830  0.780330  0.757650  0.726180  0.733020  0.787130  0.820500  0.819690  0.791860  0.710100  0.615550  0.587610  0.597590  0.566000  0.521160  0.533680  0.565040  0.554690  0.557660  0.626370  0.688340  0.690970  0.694150  0.722210  0.729140  0.712580  0.688880  0.660810  0.659540  0.688900  0.698980  0.669260  0.621060  0.589670  0.591250  0.587580  0.561930  0.553350  0.554020  0.531640  0.515670  0.520760  0.520310  0.528340  0.555000  0.547680  0.475730  0.382520  0.313090  0.247190  0.145110  0.044352 -0.003835 -0.055480 -0.163530 -0.283740 -0.394120 -0.490680 -0.555660 -0.667610 -0.872110 -1.045000 -1.132800 -1.217600 -1.322900 -1.440000 -1.559500 -1.632000 -1.668800 -1.714600 -1.748800 -1.768400 -1.793500 -1.794500 -1.762800 -1.737600 -1.721700 -1.695800 -1.672800 -1.641400 -1.550900 -1.430700 -1.354400 -1.284700 -1.187800 -1.137400 -1.123500 -1.060600 -0.966040 -0.880180 -0.790100 -0.700640 -0.608340 -0.494520 -0.395520 -0.348670 -0.308560 -0.237460 -0.178580 -0.138490 -0.063590  0.030138  0.099174  0.145200  0.147710  0.118960  0.138350  0.191690  0.194110  0.169900  0.192270  0.241360  0.259210  0.250060  0.250260  0.247440  0.208170  0.159430  0.145450  0.151790  0.151570  0.150360  0.150600  0.150020  0.154260  0.146240  0.100400  0.052296  0.053441  0.058246  0.013830 -0.020697 -0.017348 -0.023438 -0.009406  0.041258  0.045992  0.008817  0.009327  0.036990  0.052014  0.052593  0.034803  0.012140  0.012941  0.023525  0.010499 -0.013898 -0.019620 -0.017152 -0.017862 -0.014877 -0.019650 -0.021026  0.002701  0.017264  0.014534  0.033029  0.052973  0.050578  0.051739  0.045308  0.019553  0.023842  0.059363  0.056943  0.020719  0.022410  0.048480  0.036374  0.011217  0.014379  0.018253  0.018002  0.043080  0.075105  0.084058  0.083157  0.085330  0.081628  0.081423  0.101400  0.121980  0.119570  0.099600  0.077261  0.079635  0.108830  0.113600  0.086946  0.077192  0.088767  0.112250  0.144550  0.145940  0.119700  0.113930  0.117340  0.116420  0.122850  0.107780  0.083820  0.100360  0.121790  0.117660  0.118480  0.111410  0.085859  0.077448  0.089488  0.113490  0.146000  0.141600  0.088762  0.065238  0.101110  0.118510  0.092184  0.085051  0.085235  0.055330  0.061470  0.113940  0.113400  0.062422  0.048580  0.073924  0.082539  0.052782  0.018420  0.024507  0.049114  0.037662  0.000119 -0.017323 -0.015855 -0.019633 -0.017945 -0.011093 -0.028403 -0.050675 -0.050636 -0.053980 -0.051837 -0.024624 -0.022261 -0.050404 -0.055060 -0.049822 -0.051293 -0.031501 -0.009427 -0.017086 -0.040131 -0.056727 -0.051326 -0.042522 -0.065476 -0.084766 -0.076399 -0.110440 -0.185620 -0.189720 -0.099912 -0.017253 -0.020477 -0.090674 -0.152520 -0.177450 -0.197020 -0.219660 -0.240010 -0.270510 -0.286370 -0.250110 -0.184050 -0.116130 -0.031502  0.073144  0.189050  0.337070  0.521900  0.695600  0.831970  0.968640  1.134900  1.301400  1.418400  1.463200  1.447800  1.403200  1.359100  1.318400  1.256300  1.150600  0.982580  0.766110  0.575540  0.424320  0.247010  0.070853 -0.059135 -0.218080 -0.442420 -0.686040 -0.943920 -1.221900 -1.527500 -1.867100 -2.161700 -2.379000 -2.632100 -2.942300 -3.197700 -3.386200 -3.569700 -3.748300 -3.917900 -4.112400 -4.353200 -4.619100 -4.897300 -5.241800 -5.671200 -6.088900 -6.463300 -6.874400 -7.305100 -7.671500 -7.960500 -8.138000 -8.150900 -8.030900 -7.813000 -7.502300 -7.147100 -6.784700 -6.387200 -5.925600 
Shapelet   7  -0.303630 -0.296210 -0.289170 -0.285650 -0.285300 -0.287790 -0.286940 -0.280100 -0.276830 -0.278070 -0.272720 -0.260150 -0.251300 -0.248310 -0.247140 -0.250690 -0.256830 -0.260420 -0.268190 -0.284670 -0.300920 -0.311370 -0.322500 -0.333530 -0.335730 -0.332620 -0.332540 -0.334760 -0.333880 -0.328860 -0.322640 -0.316600 -0.313460 -0.314480 -0.313250 -0.303040 -0.289780 -0.285680 -0.286750 -0.281860 -0.276770 -0.280870 -0.289510 -0.294770 -0.297370 -0.295700 -0.285340 -0.273220 -0.267520 -0.269170 -0.276520 -0.284210 -0.286140 -0.285120 -0.289610 -0.295500 -0.295400 -0.296500 -0.302940 -0.304680 -0.297300 -0.292120 -0.296690 -0.303250 -0.305510 -0.305170 -0.305430 -0.305150 -0.300330 -0.292760 -0.286810 -0.287500 -0.295700 -0.303090 -0.305320 -0.309490 -0.324990 -0.342010 -0.348600 -0.354090 -0.365140 -0.378080 -0.395850 -0.426140 -0.461780 -0.494230 -0.531960 -0.578210 -0.624380 -0.668090 -0.709950 -0.741610 -0.763100 -0.780720 -0.786890 -0.768400 -0.723560 -0.668430 -0.602140 -0.517760 -0.423920 -0.328490 -0.231960 -0.112790  0.026504  0.168520  0.319370  0.490350  0.698000  0.924680  1.159500  1.406300  1.650600  1.893700  2.132000  2.386500  2.666400  2.955400  3.262400  3.573900  3.893600  4.223300  4.551300  4.877400  5.171900  5.448600  5.724800  5.987800  6.219800  6.397700  6.556500  6.714600  6.871600  7.039500  7.197800  7.336900  7.451900  7.552600  7.644100  7.711200  7.772700  7.826300  7.830100  7.758100  7.604100  7.405000  7.177700  6.918200  6.632900  6.296600  5.900500  5.437500  4.903100  4.288800  3.578200  2.838500  2.144900  1.556200  1.119300  0.825240  0.635940  0.480770  0.341560  0.218080  0.078666 -0.078841 -0.248680 -0.394880 -0.498690 -0.561800 -0.579180 -0.570150 -0.543970 -0.519690 -0.510330 -0.520640 -0.551250 -0.587110 -0.612030 -0.617330 -0.602040 -0.569210 -0.524560 -0.478270 -0.438830 -0.406370 -0.376650 -0.350270 -0.327360 -0.305660 -0.282860 


; cmd = /home/grad00/soren885/capstone/ShapeletResearch/Execs/FastShapelet /home/grad00/soren885/capstone/Shapelet_Datasets/UCR_Master/CinC_ECG_torso_TRAIN 4 40 820 1 2 10 euclidean 1 0 10 ./replications/CinC_ECG_torso/CinC_ECG_torso_euclidean_unnormed_CID_REP07_tree.txt ./replications/CinC_ECG_torso/CinC_ECG_torso_euclidean_unnormed_CID_REP07_time.txt
; time =>  839.974  14.185  64.025   4.949 750.983 
; command = /home/grad00/soren885/capstone/ShapeletResearch/Execs/Classify /home/grad00/soren885/capstone/Shapelet_Datasets/UCR_Master/CinC_ECG_torso_TEST 4 1380 euclidean 1 0 ./replications/CinC_ECG_torso/CinC_ECG_torso_euclidean_unnormed_CID_REP07_tree.txt ./replications/CinC_ECG_torso/CinC_ECG_torso_euclidean_unnormed_CID_REP07_acc.txt
; accuracy= 67.101   Correct:926 , Wrong: 454


;   == Confusion Matrix ==
;   real |   3    2    4    1 
;   -----+------------------------
;   p  3 | 213   70    1  125 
;   p  2 |  78  229    1   18 
;   p  4 |  44   20  326   49 
;   p  1 |   8   23   17  158 

