;Shapelet Tree 

;random seed:1502305509, rand()=1311697027, rand()=54883708
;command = /home/grad00/soren885/capstone/ShapeletResearch/Execs/FastShapelet ./Shapelet_Datasets/UCR_CV_DATA/CinC_ECG_torso_TRAIN_CV1 4 19 820 1 2 10 manhattan 0 1 10 ./cv_output/CinC_ECG_torso_CV1/CinC_ECG_torso_CV1_manhattan_normed_NOCID_tree.txt ./cv_output/CinC_ECG_torso_CV1/CinC_ECG_torso_CV1_manhattan_normed_NOCID_time.txt 

;Local Class:   0  1  2  3 
;Real  Class:   1  2  3  4 

;Node ID class   obj  pos  len  dist_th 
TreeSize: 8 
NonL  1    --      0  838   59  12.5172 ==>   2   0   6   0  /   0   6   0   5 
NonL  2    --      0  160  793  302.3835 ==>   2   0   0   0  /   0   0   6   0 
NonL  3    --      6  1007  313  63.6945 ==>   0   0   0   5  /   0   6   0   0 
Leaf  4     1    
Leaf  5     3    
Leaf  6     4    
Leaf  7     2    

;Shapelet id   <data>
Shapelet   1  -0.057471 -0.110530 -0.145900 -0.181270 -0.163590 -0.181270 -0.163590 -0.128210 -0.128210 -0.128210 -0.128210 -0.145900 -0.181270 -0.234330 -0.234330 -0.252010 -0.269700 -0.340440 -0.446560 -0.517300 -0.481930 -0.428870 -0.375810 -0.358130 -0.375810 -0.446560 -0.499620 -0.481930 -0.517300 -0.534990 -0.570360 -0.588040 -0.534990 -0.464240 -0.464240 -0.481930 -0.552670 -0.588040 -0.534990 -0.517300 -0.517300 -0.499620 -0.517300 -0.588040 -0.694160 -0.747220 -0.782590 -0.782590 -0.747220 -0.711850 -0.694160 -0.729530 -0.782590 -0.764900 -0.711850 -0.711850 -0.747220 -0.835650 -0.871020 
Shapelet   2  -0.092842 -0.057471 -0.004413  0.013272 -0.022099 -0.022099 -0.004413  0.013272  0.013272  0.066330  0.101700  0.030958  0.013272  0.013272  0.013272  0.013272  0.048644  0.101700  0.066330  0.048644  0.048644  0.013272  0.030958  0.048644  0.066330  0.030958  0.013272  0.066330  0.084016  0.030958  0.013272  0.013272 -0.004413 -0.004413 -0.039785 -0.039785 -0.004413  0.013272  0.013272  0.013272  0.048644  0.101700  0.137070  0.101700  0.066330  0.101700  0.119390  0.101700  0.119390  0.119390  0.066330  0.048644  0.048644  0.084016  0.084016  0.013272 -0.022099 -0.022099 -0.039785 -0.075157 -0.110530 -0.092842 -0.039785 -0.039785 -0.092842 -0.110530 -0.092842 -0.057471 -0.004413  0.013272  0.030958  0.048644  0.084016  0.154760  0.243190  0.207820  0.119390  0.084016  0.030958  0.066330  0.137070  0.190130  0.172440  0.137070  0.137070  0.119390  0.119390  0.154760  0.172440  0.154760  0.101700  0.030958  0.030958  0.048644  0.084016  0.101700  0.066330 -0.004413 -0.092842 -0.110530 -0.075157 -0.022099  0.013272  0.013272  0.048644  0.084016  0.048644  0.066330  0.137070  0.154760  0.172440  0.190130  0.172440  0.172440  0.172440  0.172440  0.119390  0.048644  0.013272  0.013272  0.013272  0.013272 -0.004413 -0.004413  0.013272 -0.004413  0.013272  0.066330  0.137070  0.172440  0.190130  0.172440  0.190130  0.172440  0.154760  0.154760  0.137070  0.066330  0.048644  0.084016  0.066330  0.030958  0.013272  0.013272  0.048644  0.101700  0.101700  0.137070  0.172440  0.084016  0.030958  0.066330  0.154760  0.225500  0.225500  0.225500  0.225500  0.190130  0.225500  0.260870  0.260870  0.225500  0.154760  0.119390  0.137070  0.154760  0.172440  0.172440  0.190130  0.190130  0.190130  0.137070  0.066330  0.119390  0.137070  0.084016  0.066330  0.048644  0.013272  0.013272  0.013272  0.030958  0.066330  0.048644 -0.004413 -0.004413  0.101700  0.243190  0.278560  0.260870  0.278560  0.260870  0.225500  0.207820  0.225500  0.243190  0.243190  0.225500  0.172440  0.190130  0.207820  0.190130  0.137070  0.084016  0.030958  0.013272 -0.022099 -0.022099  0.030958  0.030958  0.013272  0.048644  0.119390  0.190130  0.207820  0.190130  0.190130  0.137070  0.119390  0.101700  0.048644  0.048644  0.048644  0.048644  0.030958  0.030958  0.030958  0.048644  0.119390  0.154760  0.190130  0.190130  0.207820  0.190130  0.190130  0.172440  0.137070  0.084016  0.084016  0.101700  0.119390  0.119390  0.154760  0.190130  0.207820  0.190130  0.172440  0.225500  0.278560  0.243190  0.207820  0.172440  0.137070  0.137070  0.066330 -0.004413 -0.057471 -0.110530 -0.181270 -0.216640 -0.287390 -0.340440 -0.411190 -0.411190 -0.375810 -0.358130 -0.393500 -0.375810 -0.340440 -0.358130 -0.358130 -0.287390 -0.216640 -0.216640 -0.252010 -0.216640 -0.163590 -0.163590 -0.163590 -0.128210 -0.075157 -0.057471 -0.075157 -0.092842 -0.075157 -0.004413  0.030958  0.119390  0.154760  0.119390  0.137070  0.154760  0.207820  0.207820  0.172440  0.137070  0.066330 -0.022099 -0.110530 -0.163590 -0.198960 -0.252010 -0.340440 -0.375810 -0.393500 -0.411190 -0.375810 -0.340440 -0.358130 -0.375810 -0.375810 -0.411190 -0.411190 -0.375810 -0.305070 -0.198960 -0.110530 -0.057471 -0.092842 -0.110530 -0.092842 -0.022099  0.030958  0.084016  0.066330  0.013272 -0.004413 -0.110530 -0.198960 -0.234330 -0.216640 -0.216640 -0.216640 -0.234330 -0.181270 -0.128210 -0.075157 -0.075157 -0.039785  0.013272 -0.004413 -0.004413  0.013272  0.013272  0.013272  0.048644  0.048644  0.013272 -0.022099 -0.057471 -0.057471 -0.057471 -0.039785  0.013272  0.013272  0.066330  0.084016  0.048644  0.066330  0.101700  0.084016  0.066330  0.013272  0.013272  0.030958  0.066330  0.137070  0.225500  0.278560  0.225500  0.172440  0.137070  0.172440  0.243190  0.260870  0.225500  0.225500  0.260870  0.243190  0.207820  0.207820  0.225500  0.225500  0.190130  0.137070  0.048644  0.084016  0.119390  0.137070  0.172440  0.225500  0.225500  0.207820  0.243190  0.260870  0.278560  0.243190  0.190130  0.154760  0.137070  0.190130  0.243190  0.260870  0.225500  0.172440  0.154760  0.190130  0.190130  0.190130  0.190130  0.207820  0.172440  0.154760  0.137070  0.137070  0.172440  0.207820  0.172440  0.084016 -0.004413 -0.092842 -0.269700 -0.534990 -0.747220 -0.994820 -1.242400 -1.419300 -1.525400 -1.666900 -1.896800 -2.126700 -2.392000 -2.639600 -2.851800 -2.975600 -3.028700 -3.081700 -3.064100 -2.957900 -2.745700 -2.586500 -2.515800 -2.515800 -2.604200 -2.781100 -2.869500 -2.851800 -2.869500 -2.975600 -3.240900 -3.576900 -3.983700 -4.443500 -4.797300 -4.974100 -4.726500 -3.895300 -2.816500 -1.719900 -0.534990  0.791450  2.011800  2.913700  3.780300  4.629300  5.283600  5.796500  6.486300  7.229100  7.883400  8.590900  9.457500 10.200000 10.536000 10.483000 10.147000  9.705100  9.156800  8.325600  6.981500  5.301300  3.886500  3.019900  2.489300  1.994100  1.516600  1.056700  0.703020  0.437730  0.225500  0.013272 -0.110530 -0.198960 -0.234330 -0.181270 -0.092842 -0.022099 -0.004413 -0.022099 -0.004413 -0.004413 -0.022099 -0.004413  0.048644  0.101700  0.154760  0.207820  0.260870  0.313930  0.349300  0.331620  0.296250  0.278560  0.243190  0.260870  0.296250  0.313930  0.278560  0.225500  0.190130  0.137070  0.066330  0.084016  0.084016  0.048644  0.048644  0.084016  0.154760  0.207820  0.260870  0.278560  0.278560  0.313930  0.331620  0.331620  0.313930  0.296250  0.260870  0.225500  0.225500  0.190130  0.207820  0.225500  0.207820  0.190130  0.225500  0.207820  0.154760  0.119390  0.066330  0.084016  0.119390  0.119390  0.084016  0.048644  0.066330  0.066330  0.030958  0.030958  0.066330  0.137070  0.172440  0.154760  0.154760  0.190130  0.190130  0.225500  0.260870  0.225500  0.172440  0.172440  0.190130  0.225500  0.207820  0.207820  0.190130  0.190130  0.225500  0.243190  0.260870  0.225500  0.225500  0.243190  0.260870  0.313930  0.384670  0.366990  0.349300  0.313930  0.313930  0.331620  0.313930  0.384670  0.437730  0.437730  0.437730  0.490790  0.473100  0.490790  0.508470  0.490790  0.526160  0.596900  0.632280  0.632280  0.614590  0.561530  0.526160  0.473100  0.402360  0.384670  0.366990  0.331620  0.349300  0.402360  0.473100  0.473100  0.420050  0.384670  0.402360  0.455420  0.455420  0.384670  0.331620  0.349300  0.402360  0.402360  0.366990  0.313930  0.278560  0.225500  0.172440  0.172440  0.172440  0.137070  0.119390  0.137070  0.137070  0.119390  0.119390  0.101700  0.101700  0.119390  0.137070  0.137070  0.154760  0.207820  0.225500  0.207820  0.137070  0.084016  0.066330  0.066330  0.048644  0.030958  0.013272 -0.004413  0.013272  0.066330  0.101700  0.048644 -0.004413 -0.039785 -0.039785 -0.057471 -0.110530 -0.110530 -0.092842 -0.128210 -0.145900 -0.163590 -0.145900 -0.110530 -0.092842 -0.039785 -0.004413  0.013272 -0.004413 -0.057471 -0.110530 -0.145900 -0.181270 -0.163590 -0.181270 -0.163590 -0.128210 -0.128210 -0.128210 -0.128210 -0.145900 -0.181270 -0.234330 -0.234330 -0.252010 -0.269700 -0.340440 -0.446560 -0.517300 -0.481930 -0.428870 -0.375810 -0.358130 -0.375810 -0.446560 -0.499620 -0.481930 -0.517300 -0.534990 -0.570360 -0.588040 -0.534990 -0.464240 -0.464240 -0.481930 -0.552670 -0.588040 -0.534990 -0.517300 -0.517300 -0.499620 -0.517300 -0.588040 -0.694160 -0.747220 -0.782590 -0.782590 -0.747220 -0.711850 -0.694160 -0.729530 -0.782590 -0.764900 -0.711850 -0.711850 -0.747220 -0.835650 -0.871020 -0.924070 -0.941760 -0.888700 -0.888700 -0.906390 -0.941760 -0.959450 -0.959450 -0.994820 -0.994820 -0.977130 -0.977130 -1.065600 -1.100900 -1.136300 -1.136300 -1.189400 -1.260100 -1.330800 -1.330800 -1.313200 -1.224700 -1.118600 -1.065600 -1.012500 -0.959450 -0.924070 -0.924070 -0.906390 -0.888700 -0.835650 -0.817960 -0.835650 -0.764900 -0.676470 -0.641100 -0.658790 -0.676470 -0.694160 -0.729530 -0.782590 -0.764900 -0.711850 -0.641100 -0.534990 -0.481930 -0.481930 -0.481930 -0.428870 -0.411190 -0.358130 -0.322760 -0.340440 -0.375810 -0.428870 -0.428870 
Shapelet   3  -1.597400 -1.600600 -1.597000 -1.598100 -1.603500 -1.591100 -1.574800 -1.586300 -1.602600 -1.600000 -1.597000 -1.598600 -1.599800 -1.600900 -1.591000 -1.574700 -1.571200 -1.574900 -1.574700 -1.573500 -1.573100 -1.574900 -1.575600 -1.565300 -1.546500 -1.529100 -1.512400 -1.497300 -1.496800 -1.504800 -1.494900 -1.476500 -1.476000 -1.469400 -1.433500 -1.394100 -1.367000 -1.351800 -1.351000 -1.346200 -1.328200 -1.311300 -1.289100 -1.254100 -1.218600 -1.185100 -1.153000 -1.132300 -1.120100 -1.102200 -1.082800 -1.070300 -1.051000 -1.017000 -0.982340 -0.949310 -0.913860 -0.889640 -0.876690 -0.859830 -0.841240 -0.825960 -0.809710 -0.784090 -0.743440 -0.709280 -0.695010 -0.669740 -0.634450 -0.627560 -0.626540 -0.588210 -0.543120 -0.526970 -0.509460 -0.473220 -0.447930 -0.433020 -0.412560 -0.406610 -0.407370 -0.377570 -0.340280 -0.332720 -0.322380 -0.283480 -0.257310 -0.258660 -0.249290 -0.231820 -0.232180 -0.227580 -0.203980 -0.186520 -0.174940 -0.153350 -0.135450 -0.134190 -0.131450 -0.113230 -0.102080 -0.113250 -0.112850 -0.080901 -0.051100 -0.036503 -0.018628 -0.006966 -0.009445 -0.009996 -0.010180 -0.010036  0.004469  0.024307  0.039961  0.057808  0.069134  0.064241  0.047804  0.033537  0.041702  0.061561  0.064159  0.066284  0.084704  0.091999  0.090411  0.107720  0.123160  0.109550  0.090797  0.097223  0.121110  0.137840  0.140520  0.139100  0.139270  0.139440  0.139390  0.139340  0.139230  0.139520  0.139360  0.139050  0.139730  0.139350  0.138530  0.140770  0.139210  0.123690  0.107760  0.115500  0.135190  0.139960  0.139590  0.141980  0.129230  0.113130  0.113320  0.114410  0.115740  0.132770  0.153230  0.167450  0.184790  0.195720  0.183830  0.166010  0.162970  0.164100  0.163790  0.166290  0.161610  0.162540  0.182630  0.186200  0.165380  0.159740  0.166900  0.164280  0.162280  0.165850  0.164070  0.162480  0.166390  0.163740  0.161070  0.169680  0.161920  0.140420  0.148850  0.165090  0.162650  0.176000  0.189030  0.170800  0.151720  0.134080  0.115030  0.125650  0.141480  0.138920  0.150930  0.167590  0.164940  0.163950  0.161300  0.141750  0.121780  0.111180  0.113700  0.131110  0.142330  0.139370  0.138290  0.139930  0.139290  0.139510  0.138390  0.139780  0.154870  0.177300  0.189650  0.189730  0.189070  0.188260  0.172600  0.146690  0.140700  0.159140  0.169640  0.161880  0.161980  0.170030  0.158530  0.140570  0.140710  0.134780  0.115850  0.121890  0.149920  0.163860  0.163890  0.165020  0.164440  0.151730  0.127960  0.114480  0.115290  0.112060  0.114900  0.133130  0.141750  0.139240  0.140750  0.131510  0.112660  0.111140  0.118800  0.112800  0.110550  0.128090  0.140320  0.139160  0.141850  0.135900  0.117330  0.112250  0.114520  0.113480  0.126920  0.143170  0.140420  0.136190  0.141900  0.140270  0.124300  0.109830  0.113820  0.131720  0.142560  0.139300  0.137120  0.142340  0.138780  0.121310  0.110550  0.115060  0.116810  0.110830  0.116260  0.134330  0.143510  0.137440  0.121050  0.099512  0.088773  0.089748  0.087683  0.092715  0.111140  0.118870  0.112470  0.113360  0.118390  0.109480  0.091468  0.084573  0.095922  0.113390  0.118620  0.110790  0.113910 


; cmd = /home/grad00/soren885/capstone/ShapeletResearch/Execs/FastShapelet ./Shapelet_Datasets/UCR_CV_DATA/CinC_ECG_torso_TRAIN_CV1 4 19 820 1 2 10 manhattan 0 1 10 ./cv_output/CinC_ECG_torso_CV1/CinC_ECG_torso_CV1_manhattan_normed_NOCID_tree.txt ./cv_output/CinC_ECG_torso_CV1/CinC_ECG_torso_CV1_manhattan_normed_NOCID_time.txt
; time =>  528.634   5.777  21.724   1.865 496.912 
; command = /home/grad00/soren885/capstone/ShapeletResearch/Execs/Classify ./Shapelet_Datasets/UCR_CV_DATA/CinC_ECG_torso_TRAIN_CV2 4 21 manhattan 0 1 ./cv_output/CinC_ECG_torso_CV1/CinC_ECG_torso_CV1_manhattan_normed_NOCID_tree.txt ./cv_output/CinC_ECG_torso_CV1/CinC_ECG_torso_CV1_manhattan_normed_NOCID_acc.txt
; accuracy= 19.048   Correct:4 , Wrong: 17


;   == Confusion Matrix ==
;   real |   1    2    3    4 
;   -----+------------------------
;   p  1 |   0    0    0    0 
;   p  2 |   1    2    2    3 
;   p  3 |   1    3    2    2 
;   p  4 |   1    2    2    0 

