;Shapelet Tree 

;random seed:1502302893, rand()=1625366461, rand()=267237531
;command = /home/grad00/soren885/capstone/ShapeletResearch/Execs/FastShapelet ./Shapelet_Datasets/UCR_CV_DATA/CinC_ECG_torso_TRAIN_CV1 4 19 820 1 2 10 euclidean 1 1 10 ./cv_output/CinC_ECG_torso_CV1/CinC_ECG_torso_CV1_euclidean_normed_CID_tree.txt ./cv_output/CinC_ECG_torso_CV1/CinC_ECG_torso_CV1_euclidean_normed_CID_time.txt 

;Local Class:   0  1  2  3 
;Real  Class:   1  2  3  4 

;Node ID class   obj  pos  len  dist_th 
TreeSize: 8 
NonL  1    --      2   74  703  32.2875 ==>   0   6   6   0  /   2   0   0   5 
NonL  2    --      0   14   21   1.2637 ==>   0   6   0   0  /   0   0   6   0 
NonL  3    --      4  672  767  104.4388 ==>   0   0   0   5  /   2   0   0   0 
Leaf  4     2    
Leaf  5     3    
Leaf  6     4    
Leaf  7     1    

;Shapelet id   <data>
Shapelet   1  -0.160290 -0.161980 -0.161410 -0.159390 -0.156130 -0.151120 -0.145310 -0.140370 -0.136910 -0.135290 -0.137020 -0.142330 -0.147560 -0.148990 -0.148290 -0.150000 -0.154280 -0.156860 -0.156410 -0.156930 -0.161420 -0.167160 -0.169800 -0.169620 -0.169820 -0.170570 -0.169360 -0.166520 -0.165090 -0.165500 -0.165600 -0.165700 -0.168040 -0.171220 -0.170670 -0.165620 -0.160940 -0.160330 -0.161800 -0.161610 -0.160470 -0.161310 -0.162360 -0.160080 -0.157070 -0.158170 -0.161180 -0.161700 -0.161180 -0.161370 -0.160740 -0.161000 -0.165290 -0.170840 -0.173500 -0.175170 -0.178040 -0.179650 -0.178180 -0.175490 -0.173210 -0.170630 -0.167530 -0.165490 -0.165310 -0.165640 -0.165580 -0.165600 -0.165570 -0.165320 -0.165780 -0.166010 -0.164130 -0.161420 -0.159200 -0.156050 -0.153010 -0.152840 -0.152820 -0.151190 -0.153430 -0.159430 -0.161430 -0.160850 -0.165040 -0.170180 -0.170230 -0.170450 -0.173650 -0.173500 -0.169780 -0.168850 -0.170330 -0.170200 -0.169540 -0.169870 -0.169990 -0.169880 -0.169940 -0.169680 -0.169810 -0.170470 -0.169450 -0.166600 -0.165100 -0.165480 -0.165600 -0.165600 -0.165920 -0.164730 -0.161860 -0.160290 -0.161380 -0.163780 -0.166690 -0.169340 -0.170350 -0.169890 -0.169590 -0.170040 -0.170170 -0.168830 -0.165820 -0.162580 -0.161080 -0.161150 -0.161240 -0.161220 -0.161550 -0.161020 -0.158480 -0.155950 -0.156420 -0.159310 -0.161350 -0.161420 -0.161230 -0.161310 -0.160910 -0.161290 -0.163730 -0.166200 -0.166170 -0.163960 -0.161330 -0.160320 -0.161740 -0.162190 -0.159190 -0.156940 -0.157680 -0.156290 -0.152720 -0.154420 -0.160430 -0.162560 -0.161070 -0.160970 -0.161160 -0.160900 -0.164120 -0.170250 -0.173840 -0.174100 -0.174080 -0.174380 -0.174200 -0.173990 -0.174340 -0.174470 -0.173150 -0.170140 -0.166940 -0.165370 -0.165380 -0.165680 -0.165590 -0.165460 -0.165590 -0.165620 -0.165480 -0.165520 -0.165690 -0.165530 -0.165230 -0.166160 -0.168920 -0.172200 -0.174230 -0.174500 -0.174040 -0.174040 -0.174430 -0.174220 -0.173820 -0.174440 -0.174750 -0.172740 -0.170070 -0.169410 -0.169970 -0.169940 -0.169940 -0.170010 -0.168260 -0.165200 -0.164350 -0.167010 -0.169690 -0.168870 -0.165320 -0.162180 -0.160980 -0.161010 -0.162320 -0.165550 -0.168890 -0.169900 -0.169610 -0.171020 -0.173980 -0.176590 -0.179160 -0.181940 -0.183270 -0.182900 -0.182720 -0.182730 -0.180580 -0.176530 -0.174190 -0.175580 -0.178830 -0.181630 -0.183380 -0.183310 -0.180920 -0.178470 -0.178090 -0.178650 -0.178580 -0.178520 -0.178540 -0.176750 -0.173160 -0.170330 -0.169820 -0.169950 -0.168230 -0.164840 -0.161940 -0.160950 -0.161180 -0.161360 -0.161210 -0.161010 -0.161740 -0.164510 -0.169320 -0.174480 -0.177720 -0.178620 -0.178510 -0.178550 -0.178520 -0.178330 -0.178630 -0.178710 -0.178130 -0.178440 -0.179250 -0.178050 -0.177230 -0.181430 -0.186780 -0.186280 -0.182180 -0.179550 -0.177280 -0.174560 -0.173810 -0.174200 -0.173970 -0.174570 -0.174720 -0.171860 -0.169890 -0.172280 -0.174610 -0.174200 -0.175250 -0.178410 -0.179330 -0.178210 -0.178160 -0.178890 -0.178630 -0.176810 -0.173450 -0.170400 -0.169970 -0.170100 -0.167810 -0.165370 -0.165240 -0.165640 -0.165520 -0.165810 -0.165510 -0.164760 -0.166620 -0.169590 -0.168880 -0.165590 -0.163110 -0.160190 -0.157070 -0.158720 -0.165080 -0.169530 -0.169720 -0.169480 -0.170480 -0.170170 -0.167560 -0.165350 -0.165260 -0.165800 -0.165720 -0.164460 -0.160790 -0.155390 -0.151270 -0.148990 -0.146420 -0.143940 -0.142130 -0.137730 -0.129740 -0.122200 -0.118210 -0.116050 -0.112730 -0.107700 -0.101780 -0.096944 -0.094193 -0.091573 -0.086802 -0.080323 -0.075528 -0.073165 -0.070111 -0.065122 -0.059801 -0.054841 -0.048271 -0.039904 -0.032114 -0.024802 -0.017068 -0.009943 -0.005899 -0.005536 -0.006089 -0.006114 -0.005825 -0.005882 -0.006141 -0.005884 -0.005985 -0.005574 -0.002349  0.003137  0.007529  0.009679  0.013314  0.018835  0.022818  0.024308  0.022500  0.017490  0.012115  0.010515  0.011382  0.010920  0.011789  0.014531  0.016896  0.019800  0.026080  0.035247  0.042821  0.050144  0.061503  0.077679  0.097282  0.117650  0.137800  0.155350  0.167870  0.176230  0.181810  0.184430  0.181250  0.174260  0.171040  0.173400  0.175550  0.172670  0.167160  0.162480  0.157710  0.151540  0.141630  0.127090  0.111760  0.098408  0.085849  0.070716  0.053504  0.035640  0.016885  0.000150 -0.013058 -0.024467 -0.037390 -0.051744 -0.062881 -0.069018 -0.071744 -0.074295 -0.075700 -0.070404 -0.058353 -0.044916 -0.034668 -0.027680 -0.023282 -0.020915 -0.018161 -0.017419 -0.022665 -0.030912 -0.038028 -0.046885 -0.059981 -0.071681 -0.078340 -0.083455 -0.088468 -0.091438 -0.092893 -0.095529 -0.100160 -0.105480 -0.110740 -0.115610 -0.120650 -0.126350 -0.131010 -0.132270 -0.130450 -0.130080 -0.133300 -0.135380 -0.133260 -0.130680 -0.130640 -0.131610 -0.134490 -0.142890 -0.154420 -0.162830 -0.167630 -0.172830 -0.178950 -0.183100 -0.185390 -0.188490 -0.191140 -0.191310 -0.191500 -0.194010 -0.196190 -0.195840 -0.196470 -0.199910 -0.203060 -0.204940 -0.209470 -0.218850 -0.229240 -0.237360 -0.244620 -0.250430 -0.252120 -0.251730 -0.253630 -0.256420 -0.256540 -0.256040 -0.256270 -0.254770 -0.251720 -0.250680 -0.252830 -0.255450 -0.257580 -0.260480 -0.263480 -0.264990 -0.264860 -0.264730 -0.264830 -0.264380 -0.265130 -0.267750 -0.270010 -0.269440 -0.266770 -0.264450 -0.262030 -0.258880 -0.256420 -0.255920 -0.256170 -0.255790 -0.256750 -0.259480 -0.263290 -0.269300 -0.275560 -0.277960 -0.277550 -0.278470 -0.277930 -0.272540 -0.268510 -0.268880 -0.268220 -0.265100 -0.264060 -0.264780 -0.262460 -0.258510 -0.256410 -0.254580 -0.251450 -0.250140 -0.254030 -0.259480 -0.262240 -0.265040 -0.270150 -0.274740 -0.277000 -0.279620 -0.282090 -0.280460 -0.276580 -0.274020 -0.272240 -0.269410 -0.266220 -0.264550 -0.264440 -0.265160 -0.265010 -0.262860 -0.260020 -0.257300 -0.255430 -0.255820 -0.257170 -0.255910 -0.252530 -0.252060 -0.252570 -0.247530 -0.238750 -0.232570 -0.229020 -0.223790 -0.218380 -0.217290 -0.219730 -0.222000 -0.222000 -0.221160 -0.221510 -0.223430 -0.226590 -0.229410 -0.230590 -0.230370 -0.230080 -0.230320 -0.230340 -0.230210 -0.230260 -0.230390 -0.230260 -0.228470 -0.224110 -0.218810 -0.215090 -0.213070 -0.210780 -0.207860 -0.205420 -0.202470 -0.196480 -0.186900 -0.176260 -0.168330 -0.163590 -0.161560 -0.160310 -0.156130 -0.149250 -0.139810 -0.129570 -0.118120 -0.103850 -0.086399 -0.059461 -0.026076  0.012528  0.059896  0.114910  0.178410  0.240760  0.311330  0.403130  0.513760  0.639380  0.767070  0.905170  1.050600  1.196100  1.354200  1.528800  1.732400  1.949500  2.169100  2.395200  2.618200  2.850400  3.085100  3.326000  3.576800  3.824100  4.082500  4.339000  4.599100  4.871200  5.143600  5.410200  5.631800  5.823200  6.025900  6.249600  6.476300  6.672200  6.856400  7.033200  7.176900  7.283200  7.345400  7.369000  7.355400  7.307600  7.231600  7.118300  6.968000  6.785500  6.547800  6.249800  5.896000  5.514700  5.127600  4.715500  4.269100  3.754100  3.153500  2.455500  1.638400  0.693960 -0.375630 -1.462100 -2.409800 -3.105900 -3.526100 -3.735400 -3.788300 -3.750500 -3.677100 -3.590000 -3.494400 -3.379300 -3.262400 -3.154800 
Shapelet   2  -0.113100 -0.110100 -0.108990 -0.109470 -0.109150 -0.110180 -0.113110 -0.114100 -0.113760 -0.115810 -0.118890 -0.121270 -0.124410 -0.126710 -0.124960 -0.121990 -0.121880 -0.122790 -0.122500 -0.122200 -0.122530 
Shapelet   3   0.304850  0.312740  0.329250  0.336740  0.341130  0.364390  0.394480  0.406350  0.412850  0.428070  0.434770  0.429600  0.430020  0.436870  0.444370  0.459230  0.485570  0.514450  0.534230  0.542990  0.548170  0.555940  0.564220  0.567330  0.566930  0.571600  0.584310  0.598620  0.607060  0.608780  0.608680  0.608760  0.607710  0.609080  0.615830  0.623850  0.630510  0.637400  0.644930  0.651310  0.651620  0.644650  0.639000  0.639410  0.640350  0.639500  0.639690  0.640190  0.639420  0.639720  0.640490  0.638970  0.639650  0.641840  0.636110  0.629570  0.634980  0.641900  0.640040  0.638540  0.640770  0.639900  0.638760  0.640970  0.639650  0.637790  0.645060  0.650250  0.642790  0.637320  0.640490  0.640630  0.638450  0.640390  0.640550  0.637820  0.641620  0.649510  0.647460  0.636230  0.629680  0.629630  0.628690  0.628960  0.635310  0.641270  0.640220  0.638470  0.640950  0.640200  0.632760  0.627710  0.629590  0.630490  0.627730  0.629820  0.637280  0.640990  0.639690  0.633790  0.620040  0.607540  0.606990  0.610080  0.608000  0.607550  0.610400  0.607000  0.599240  0.597480  0.597470  0.589910  0.580290  0.576570  0.576880  0.581680  0.590300  0.588930  0.578310  0.579680  0.587640  0.582220  0.575130  0.577270  0.577410  0.578740  0.587910  0.590800  0.582380  0.577310  0.578060  0.573480  0.566420  0.565870  0.567410  0.566720  0.566630  0.566650  0.566980  0.567420  0.562630  0.554870  0.554790  0.562480  0.567400  0.566960  0.566980  0.565730  0.558030  0.548770  0.545330  0.545930  0.545970  0.545840  0.546040  0.545760  0.546000  0.546070  0.545890  0.544630  0.535390  0.524870  0.529130  0.535600  0.528520  0.523220  0.525170  0.518950  0.508130  0.503800  0.497490  0.485980  0.484150  0.492060  0.495010  0.493130  0.486500  0.470820  0.461300  0.462630  0.457560  0.450540  0.451720  0.452360  0.452210  0.452410  0.446250  0.438750  0.431790  0.422570  0.422330  0.431110  0.433260  0.428070  0.420580  0.412360  0.409830  0.410210  0.403830  0.394650  0.388870  0.382200  0.373390  0.368140  0.368120  0.369280  0.367970  0.361260  0.348030  0.334320  0.327430  0.326490  0.326920  0.326900  0.326970  0.326150  0.318340  0.303440  0.292170  0.285790  0.278450  0.272320  0.264790  0.255430  0.254710  0.253870  0.240150  0.228150  0.222190  0.208790  0.195050  0.191100  0.191060  0.191890  0.190730  0.183890  0.175950  0.169170  0.162100  0.155510  0.147690  0.140440  0.135660  0.125110  0.110330  0.102150  0.094259  0.079362  0.064522  0.050760  0.036360  0.027349  0.022414  0.014608  0.006915  0.000198 -0.016488 -0.040085 -0.052720 -0.059346 -0.073187 -0.084625 -0.091007 -0.103910 -0.119770 -0.133560 -0.147670 -0.160350 -0.176680 -0.198640 -0.212410 -0.216310 -0.222700 -0.234840 -0.250520 -0.264720 -0.276110 -0.294340 -0.316150 -0.330770 -0.345860 -0.360310 -0.365650 -0.378200 -0.401030 -0.416090 -0.431020 -0.453960 -0.474750 -0.496790 -0.518010 -0.525910 -0.532510 -0.550100 -0.570550 -0.591620 -0.613580 -0.633810 -0.655780 -0.676740 -0.690620 -0.702940 -0.719160 -0.739460 -0.762670 -0.782400 -0.802230 -0.831250 -0.856540 -0.869690 -0.883270 -0.896950 -0.910640 -0.932410 -0.949900 -0.963490 -0.990430 -1.015100 -1.028000 -1.047200 -1.067100 -1.080900 -1.100600 -1.119700 -1.133900 -1.153600 -1.172700 -1.186900 -1.206100 -1.226600 -1.239300 -1.251300 -1.268000 -1.281400 -1.293300 -1.313500 -1.335200 -1.354900 -1.379500 -1.396700 -1.402200 -1.414400 -1.428000 -1.433800 -1.449600 -1.473200 -1.486300 -1.501600 -1.527600 -1.540800 -1.537700 -1.544400 -1.560600 -1.567800 -1.575400 -1.592400 -1.606900 -1.617000 -1.624900 -1.629600 -1.638600 -1.646000 -1.644000 -1.646900 -1.656700 -1.662300 -1.671700 -1.689100 -1.697400 -1.691900 -1.686600 -1.686100 -1.686000 -1.687000 -1.687200 -1.681700 -1.674800 -1.675200 -1.678500 -1.672900 -1.658300 -1.647200 -1.643300 -1.636600 -1.622300 -1.608500 -1.603900 -1.600500 -1.581700 -1.553300 -1.535100 -1.523000 -1.500200 -1.474600 -1.460900 -1.447000 -1.423700 -1.406600 -1.393800 -1.366500 -1.332300 -1.309200 -1.288800 -1.260200 -1.234900 -1.220700 -1.205500 -1.179800 -1.151200 -1.124800 -1.093600 -1.057900 -1.027100 -0.999990 -0.971850 -0.948070 -0.927690 -0.898950 -0.862140 -0.829420 -0.802760 -0.775080 -0.743420 -0.708230 -0.676080 -0.654560 -0.633620 -0.604550 -0.577090 -0.548580 -0.511850 -0.482100 -0.464890 -0.444390 -0.419580 -0.401690 -0.388020 -0.369960 -0.347010 -0.319020 -0.287930 -0.263040 -0.242470 -0.218990 -0.201460 -0.188320 -0.166990 -0.148340 -0.135450 -0.110760 -0.079780 -0.052354 -0.026875 -0.014053 -0.008055  0.006775  0.017221  0.023680  0.039015  0.048191  0.055502  0.077444  0.092868  0.097618  0.111560  0.124070  0.129240  0.142540  0.159570  0.172010  0.186200  0.198510  0.202040  0.208340  0.220680  0.221520  0.219780  0.238110  0.257410  0.262850  0.274390  0.288730  0.294610  0.302080  0.306530  0.305680  0.312120  0.317430  0.316340  0.321770  0.330330  0.337030  0.345620  0.346310  0.337210  0.334660  0.341310  0.348070  0.354740  0.362860  0.369000  0.369520  0.367310  0.369050  0.369780  0.365990  0.370270  0.378570  0.376990  0.381730  0.397600  0.397960  0.387100  0.388210  0.391850  0.387930  0.388480  0.396170  0.400700  0.400040  0.399540  0.399980  0.399920  0.399900  0.399680  0.399910  0.400360  0.398930  0.400020  0.407150  0.411930  0.410190  0.409470  0.411200  0.410090  0.409090  0.414320  0.421570  0.421960  0.418810  0.421680  0.422560  0.414000  0.410410  0.411170  0.406690  0.414540  0.430200  0.426240  0.420950  0.430190  0.428560  0.416470  0.410670  0.408540  0.413330  0.420620  0.419940  0.423850  0.431220  0.425380  0.418320  0.420900  0.421700  0.419690  0.421020  0.427120  0.437140  0.441670  0.440500  0.446380  0.452180  0.444900  0.437810  0.443470  0.451130  0.452300  0.452110  0.452230  0.451330  0.452660  0.452820  0.446120  0.440450  0.441380  0.441720  0.442530  0.450990  0.460430  0.462460  0.462470  0.463680  0.459490  0.452170  0.450900  0.452560  0.452130  0.457300  0.468960  0.472750  0.465370  0.460510  0.462890  0.463320  0.461120  0.463010  0.463560  0.459910  0.464350  0.472630  0.468420  0.461520  0.462460  0.458440  0.449990  0.450920  0.458020  0.464740  0.472090  0.475390  0.469860  0.462870  0.461860  0.462360  0.462450  0.467900  0.477370  0.483440  0.478920  0.466070  0.462710  0.465720  0.453320  0.441440  0.448610  0.453300  0.452360  0.459820  0.463970  0.462410  0.463350  0.455030  0.438220  0.431150  0.431580  0.431330  0.438740  0.451050  0.449830  0.441830  0.446850  0.452280  0.443070  0.437380  0.445670  0.452010  0.451140  0.454390  0.462320  0.464550  0.459280  0.452070  0.444590  0.439460  0.441990  0.449510  0.453340  0.451880  0.451290  0.453180  0.451430  0.444320  0.436440  0.430280  0.429670  0.436380  0.442780  0.449460  0.460060  0.461220  0.453060  0.451890  0.450590  0.442600  0.440470  0.441580  0.441300  0.447850  0.452220  0.442640  0.432310  0.431570  0.431310  0.429440  0.434660  0.441740  0.442030  0.441630  0.441590  0.440600  0.443580  0.440790  0.431670  0.435080  0.442000  0.440840  0.446750  0.451890  0.443810  0.440290  0.441100  0.433190  0.428860  0.431940  0.431380  0.434020  0.445680  0.452300  0.446420  0.440150  0.441460  0.438460  0.425340  0.420480  0.428870  0.429400  0.420940  0.419480  0.421220  0.420810  0.421520  0.417510  0.409980  0.409140  0.411220  0.410150  0.409840  0.410760  0.410200  0.410270  0.408130  0.397220  0.388920  0.394990  0.400120  0.399120  0.405940  0.409910  0.401450  0.397800  0.400590  0.400050  0.399880  0.399310  0.399490  0.406430  0.411330  0.410390  0.410840  0.408050  0.400030  0.392670  0.386670  0.389820  0.404700  0.413000  0.410080 


; cmd = /home/grad00/soren885/capstone/ShapeletResearch/Execs/FastShapelet ./Shapelet_Datasets/UCR_CV_DATA/CinC_ECG_torso_TRAIN_CV1 4 19 820 1 2 10 euclidean 1 1 10 ./cv_output/CinC_ECG_torso_CV1/CinC_ECG_torso_CV1_euclidean_normed_CID_tree.txt ./cv_output/CinC_ECG_torso_CV1/CinC_ECG_torso_CV1_euclidean_normed_CID_time.txt
; time =>  708.607   5.969  24.699   2.093 673.155 
; command = /home/grad00/soren885/capstone/ShapeletResearch/Execs/Classify ./Shapelet_Datasets/UCR_CV_DATA/CinC_ECG_torso_TRAIN_CV2 4 21 euclidean 1 1 ./cv_output/CinC_ECG_torso_CV1/CinC_ECG_torso_CV1_euclidean_normed_CID_tree.txt ./cv_output/CinC_ECG_torso_CV1/CinC_ECG_torso_CV1_euclidean_normed_CID_acc.txt
; accuracy= 52.381   Correct:11 , Wrong: 10


;   == Confusion Matrix ==
;   real |   1    2    3    4 
;   -----+------------------------
;   p  1 |   2    0    0    0 
;   p  2 |   0    2    2    0 
;   p  3 |   0    4    3    1 
;   p  4 |   1    1    1    4 

