;Shapelet Tree 

;random seed:1503468193, rand()=973652655, rand()=720762311
;command = /home/grad00/soren885/capstone/ShapeletResearch/Execs/FastShapelet /home/grad00/soren885/capstone/Shapelet_Datasets/UCR_CV_DATA/CinC_ECG_torso_TRAIN_CV1 4 19 820 1 2 10 correlation 1 0 10 ./cv_output/CinC_ECG_torso_CV1/CinC_ECG_torso_CV1_correlation_unnormed_CID_tree.txt ./cv_output/CinC_ECG_torso_CV1/CinC_ECG_torso_CV1_correlation_unnormed_CID_time.txt 

;Local Class:   0  1  2  3 
;Real  Class:   1  2  3  4 

;Node ID class   obj  pos  len  dist_th 
TreeSize: 8 
NonL  1    --      2   62  703   0.9027 ==>   0   6   6   0  /   2   0   0   5 
NonL  2    --     10   42  817   0.8019 ==>   0   0   6   0  /   0   6   0   0 
NonL  3    --      4    5  401   1.0029 ==>   0   0   0   5  /   2   0   0   0 
Leaf  4     3    
Leaf  5     2    
Leaf  6     4    
Leaf  7     1    

;Shapelet id   <data>
Shapelet   1  -0.144940 -0.144040 -0.146900 -0.152540 -0.157030 -0.157730 -0.156590 -0.156640 -0.157390 -0.156970 -0.156280 -0.157520 -0.160290 -0.161980 -0.161410 -0.159390 -0.156130 -0.151120 -0.145310 -0.140370 -0.136910 -0.135290 -0.137020 -0.142330 -0.147560 -0.148990 -0.148290 -0.150000 -0.154280 -0.156860 -0.156410 -0.156930 -0.161420 -0.167160 -0.169800 -0.169620 -0.169820 -0.170570 -0.169360 -0.166520 -0.165090 -0.165500 -0.165600 -0.165700 -0.168040 -0.171220 -0.170670 -0.165620 -0.160940 -0.160330 -0.161800 -0.161610 -0.160470 -0.161310 -0.162360 -0.160080 -0.157070 -0.158170 -0.161180 -0.161700 -0.161180 -0.161370 -0.160740 -0.161000 -0.165290 -0.170840 -0.173500 -0.175170 -0.178040 -0.179650 -0.178180 -0.175490 -0.173210 -0.170630 -0.167530 -0.165490 -0.165310 -0.165640 -0.165580 -0.165600 -0.165570 -0.165320 -0.165780 -0.166010 -0.164130 -0.161420 -0.159200 -0.156050 -0.153010 -0.152840 -0.152820 -0.151190 -0.153430 -0.159430 -0.161430 -0.160850 -0.165040 -0.170180 -0.170230 -0.170450 -0.173650 -0.173500 -0.169780 -0.168850 -0.170330 -0.170200 -0.169540 -0.169870 -0.169990 -0.169880 -0.169940 -0.169680 -0.169810 -0.170470 -0.169450 -0.166600 -0.165100 -0.165480 -0.165600 -0.165600 -0.165920 -0.164730 -0.161860 -0.160290 -0.161380 -0.163780 -0.166690 -0.169340 -0.170350 -0.169890 -0.169590 -0.170040 -0.170170 -0.168830 -0.165820 -0.162580 -0.161080 -0.161150 -0.161240 -0.161220 -0.161550 -0.161020 -0.158480 -0.155950 -0.156420 -0.159310 -0.161350 -0.161420 -0.161230 -0.161310 -0.160910 -0.161290 -0.163730 -0.166200 -0.166170 -0.163960 -0.161330 -0.160320 -0.161740 -0.162190 -0.159190 -0.156940 -0.157680 -0.156290 -0.152720 -0.154420 -0.160430 -0.162560 -0.161070 -0.160970 -0.161160 -0.160900 -0.164120 -0.170250 -0.173840 -0.174100 -0.174080 -0.174380 -0.174200 -0.173990 -0.174340 -0.174470 -0.173150 -0.170140 -0.166940 -0.165370 -0.165380 -0.165680 -0.165590 -0.165460 -0.165590 -0.165620 -0.165480 -0.165520 -0.165690 -0.165530 -0.165230 -0.166160 -0.168920 -0.172200 -0.174230 -0.174500 -0.174040 -0.174040 -0.174430 -0.174220 -0.173820 -0.174440 -0.174750 -0.172740 -0.170070 -0.169410 -0.169970 -0.169940 -0.169940 -0.170010 -0.168260 -0.165200 -0.164350 -0.167010 -0.169690 -0.168870 -0.165320 -0.162180 -0.160980 -0.161010 -0.162320 -0.165550 -0.168890 -0.169900 -0.169610 -0.171020 -0.173980 -0.176590 -0.179160 -0.181940 -0.183270 -0.182900 -0.182720 -0.182730 -0.180580 -0.176530 -0.174190 -0.175580 -0.178830 -0.181630 -0.183380 -0.183310 -0.180920 -0.178470 -0.178090 -0.178650 -0.178580 -0.178520 -0.178540 -0.176750 -0.173160 -0.170330 -0.169820 -0.169950 -0.168230 -0.164840 -0.161940 -0.160950 -0.161180 -0.161360 -0.161210 -0.161010 -0.161740 -0.164510 -0.169320 -0.174480 -0.177720 -0.178620 -0.178510 -0.178550 -0.178520 -0.178330 -0.178630 -0.178710 -0.178130 -0.178440 -0.179250 -0.178050 -0.177230 -0.181430 -0.186780 -0.186280 -0.182180 -0.179550 -0.177280 -0.174560 -0.173810 -0.174200 -0.173970 -0.174570 -0.174720 -0.171860 -0.169890 -0.172280 -0.174610 -0.174200 -0.175250 -0.178410 -0.179330 -0.178210 -0.178160 -0.178890 -0.178630 -0.176810 -0.173450 -0.170400 -0.169970 -0.170100 -0.167810 -0.165370 -0.165240 -0.165640 -0.165520 -0.165810 -0.165510 -0.164760 -0.166620 -0.169590 -0.168880 -0.165590 -0.163110 -0.160190 -0.157070 -0.158720 -0.165080 -0.169530 -0.169720 -0.169480 -0.170480 -0.170170 -0.167560 -0.165350 -0.165260 -0.165800 -0.165720 -0.164460 -0.160790 -0.155390 -0.151270 -0.148990 -0.146420 -0.143940 -0.142130 -0.137730 -0.129740 -0.122200 -0.118210 -0.116050 -0.112730 -0.107700 -0.101780 -0.096944 -0.094193 -0.091573 -0.086802 -0.080323 -0.075528 -0.073165 -0.070111 -0.065122 -0.059801 -0.054841 -0.048271 -0.039904 -0.032114 -0.024802 -0.017068 -0.009943 -0.005899 -0.005536 -0.006089 -0.006114 -0.005825 -0.005882 -0.006141 -0.005884 -0.005985 -0.005574 -0.002349  0.003137  0.007529  0.009679  0.013314  0.018835  0.022818  0.024308  0.022500  0.017490  0.012115  0.010515  0.011382  0.010920  0.011789  0.014531  0.016896  0.019800  0.026080  0.035247  0.042821  0.050144  0.061503  0.077679  0.097282  0.117650  0.137800  0.155350  0.167870  0.176230  0.181810  0.184430  0.181250  0.174260  0.171040  0.173400  0.175550  0.172670  0.167160  0.162480  0.157710  0.151540  0.141630  0.127090  0.111760  0.098408  0.085849  0.070716  0.053504  0.035640  0.016885  0.000150 -0.013058 -0.024467 -0.037390 -0.051744 -0.062881 -0.069018 -0.071744 -0.074295 -0.075700 -0.070404 -0.058353 -0.044916 -0.034668 -0.027680 -0.023282 -0.020915 -0.018161 -0.017419 -0.022665 -0.030912 -0.038028 -0.046885 -0.059981 -0.071681 -0.078340 -0.083455 -0.088468 -0.091438 -0.092893 -0.095529 -0.100160 -0.105480 -0.110740 -0.115610 -0.120650 -0.126350 -0.131010 -0.132270 -0.130450 -0.130080 -0.133300 -0.135380 -0.133260 -0.130680 -0.130640 -0.131610 -0.134490 -0.142890 -0.154420 -0.162830 -0.167630 -0.172830 -0.178950 -0.183100 -0.185390 -0.188490 -0.191140 -0.191310 -0.191500 -0.194010 -0.196190 -0.195840 -0.196470 -0.199910 -0.203060 -0.204940 -0.209470 -0.218850 -0.229240 -0.237360 -0.244620 -0.250430 -0.252120 -0.251730 -0.253630 -0.256420 -0.256540 -0.256040 -0.256270 -0.254770 -0.251720 -0.250680 -0.252830 -0.255450 -0.257580 -0.260480 -0.263480 -0.264990 -0.264860 -0.264730 -0.264830 -0.264380 -0.265130 -0.267750 -0.270010 -0.269440 -0.266770 -0.264450 -0.262030 -0.258880 -0.256420 -0.255920 -0.256170 -0.255790 -0.256750 -0.259480 -0.263290 -0.269300 -0.275560 -0.277960 -0.277550 -0.278470 -0.277930 -0.272540 -0.268510 -0.268880 -0.268220 -0.265100 -0.264060 -0.264780 -0.262460 -0.258510 -0.256410 -0.254580 -0.251450 -0.250140 -0.254030 -0.259480 -0.262240 -0.265040 -0.270150 -0.274740 -0.277000 -0.279620 -0.282090 -0.280460 -0.276580 -0.274020 -0.272240 -0.269410 -0.266220 -0.264550 -0.264440 -0.265160 -0.265010 -0.262860 -0.260020 -0.257300 -0.255430 -0.255820 -0.257170 -0.255910 -0.252530 -0.252060 -0.252570 -0.247530 -0.238750 -0.232570 -0.229020 -0.223790 -0.218380 -0.217290 -0.219730 -0.222000 -0.222000 -0.221160 -0.221510 -0.223430 -0.226590 -0.229410 -0.230590 -0.230370 -0.230080 -0.230320 -0.230340 -0.230210 -0.230260 -0.230390 -0.230260 -0.228470 -0.224110 -0.218810 -0.215090 -0.213070 -0.210780 -0.207860 -0.205420 -0.202470 -0.196480 -0.186900 -0.176260 -0.168330 -0.163590 -0.161560 -0.160310 -0.156130 -0.149250 -0.139810 -0.129570 -0.118120 -0.103850 -0.086399 -0.059461 -0.026076  0.012528  0.059896  0.114910  0.178410  0.240760  0.311330  0.403130  0.513760  0.639380  0.767070  0.905170  1.050600  1.196100  1.354200  1.528800  1.732400  1.949500  2.169100  2.395200  2.618200  2.850400  3.085100  3.326000  3.576800  3.824100  4.082500  4.339000  4.599100  4.871200  5.143600  5.410200  5.631800  5.823200  6.025900  6.249600  6.476300  6.672200  6.856400  7.033200  7.176900  7.283200  7.345400  7.369000  7.355400  7.307600  7.231600  7.118300  6.968000  6.785500  6.547800  6.249800  5.896000  5.514700  5.127600  4.715500  4.269100  3.754100  3.153500  2.455500  1.638400  0.693960 -0.375630 -1.462100 
Shapelet   2  -0.024970 -0.019486 -0.014090 -0.024075 -0.019495 -0.019357 -0.032772 -0.042355 -0.049205 -0.058684 -0.064940 -0.065250 -0.065042 -0.064819 -0.061061 -0.058603 -0.059244 -0.059115 -0.060700 -0.065086 -0.068988 -0.072962 -0.076297 -0.076438 -0.077208 -0.082206 -0.086893 -0.087626 -0.087557 -0.088076 -0.085958 -0.081564 -0.077865 -0.073860 -0.070440 -0.073124 -0.081328 -0.087908 -0.091442 -0.097030 -0.105190 -0.109960 -0.109860 -0.110300 -0.111080 -0.107780 -0.104340 -0.104470 -0.104250 -0.104760 -0.108820 -0.111070 -0.110060 -0.110190 -0.109050 -0.103780 -0.099429 -0.098884 -0.098779 -0.098560 -0.099662 -0.098416 -0.094155 -0.093892 -0.099918 -0.107690 -0.113940 -0.115710 -0.112060 -0.107130 -0.104230 -0.103910 -0.106930 -0.110480 -0.107470 -0.098042 -0.093074 -0.096920 -0.102350 -0.104620 -0.101480 -0.092451 -0.087437 -0.091730 -0.093410 -0.085761 -0.077770 -0.073761 -0.069866 -0.069366 -0.074500 -0.075843 -0.071519 -0.070408 -0.070169 -0.065904 -0.065647 -0.072033 -0.075948 -0.077686 -0.083233 -0.084071 -0.073233 -0.063586 -0.060552 -0.053745 -0.047145 -0.047798 -0.046077 -0.041753 -0.045685 -0.054739 -0.060070 -0.060023 -0.056383 -0.052909 -0.049407 -0.042156 -0.035535 -0.035892 -0.038288 -0.035447 -0.031248 -0.032956 -0.037755 -0.037595 -0.032843 -0.031234 -0.035431 -0.040259 -0.043099 -0.046994 -0.050111 -0.046034 -0.037970 -0.033435 -0.029737 -0.025618 -0.027139 -0.032689 -0.036298 -0.037106 -0.036751 -0.040833 -0.048036 -0.046316 -0.041882 -0.048844 -0.053590 -0.044345 -0.036362 -0.037832 -0.041741 -0.043720 -0.040864 -0.036756 -0.039144 -0.043299 -0.042528 -0.043448 -0.051189 -0.058676 -0.059875 -0.059612 -0.063986 -0.069642 -0.070062 -0.065637 -0.061039 -0.058878 -0.059128 -0.059715 -0.058954 -0.059012 -0.062205 -0.066566 -0.070135 -0.073980 -0.077250 -0.076569 -0.072629 -0.069978 -0.070370 -0.073102 -0.079084 -0.086841 -0.091817 -0.094249 -0.098344 -0.103210 -0.104720 -0.104410 -0.107340 -0.111760 -0.110550 -0.105270 -0.106220 -0.115090 -0.121660 -0.120070 -0.115990 -0.115070 -0.116990 -0.121150 -0.125680 -0.128140 -0.132430 -0.138180 -0.136800 -0.132800 -0.136140 -0.138600 -0.133080 -0.127830 -0.127760 -0.132540 -0.138030 -0.137610 -0.138280 -0.146250 -0.151400 -0.155230 -0.166580 -0.175660 -0.178000 -0.182130 -0.183230 -0.178090 -0.179410 -0.187990 -0.189380 -0.181580 -0.176600 -0.178050 -0.176060 -0.168530 -0.166750 -0.171530 -0.171090 -0.166700 -0.169270 -0.174590 -0.172280 -0.169890 -0.177150 -0.183760 -0.183120 -0.186800 -0.195230 -0.196520 -0.193800 -0.195120 -0.195930 -0.193830 -0.195240 -0.202480 -0.210120 -0.211920 -0.208350 -0.203990 -0.200520 -0.199770 -0.201870 -0.200440 -0.198630 -0.205700 -0.212130 -0.211170 -0.216020 -0.223580 -0.220530 -0.214570 -0.211780 -0.210480 -0.216600 -0.223550 -0.220240 -0.214810 -0.211620 -0.207140 -0.207390 -0.212510 -0.216240 -0.220160 -0.223560 -0.226450 -0.234540 -0.240330 -0.233250 -0.223860 -0.223620 -0.224580 -0.219860 -0.217940 -0.225280 -0.233730 -0.234230 -0.230030 -0.228260 -0.229090 -0.229190 -0.228600 -0.229070 -0.229230 -0.228290 -0.229370 -0.233330 -0.235720 -0.234270 -0.233760 -0.237180 -0.240800 -0.244530 -0.246840 -0.237790 -0.224480 -0.227930 -0.242760 -0.250680 -0.252440 -0.250950 -0.246520 -0.247350 -0.252340 -0.252340 -0.250470 -0.252020 -0.252350 -0.248690 -0.245520 -0.245470 -0.247680 -0.253050 -0.260990 -0.265050 -0.261740 -0.257440 -0.258910 -0.264060 -0.267940 -0.269140 -0.268250 -0.268030 -0.271070 -0.275070 -0.278690 -0.283470 -0.285370 -0.281170 -0.277750 -0.281420 -0.289420 -0.293820 -0.289240 -0.281220 -0.276960 -0.272860 -0.268690 -0.270670 -0.275270 -0.278790 -0.284010 -0.284610 -0.276150 -0.270930 -0.276480 -0.284320 -0.288610 -0.292320 -0.296250 -0.297690 -0.296050 -0.292130 -0.287470 -0.285130 -0.285330 -0.287100 -0.294070 -0.306130 -0.312120 -0.304530 -0.292630 -0.288920 -0.292640 -0.296450 -0.297410 -0.296360 -0.296450 -0.299970 -0.303080 -0.302600 -0.304020 -0.310540 -0.314030 -0.310430 -0.307670 -0.308140 -0.307830 -0.308620 -0.308610 -0.304060 -0.303090 -0.307770 -0.306740 -0.300020 -0.296910 -0.297190 -0.296060 -0.291940 -0.284930 -0.276760 -0.269400 -0.262180 -0.254020 -0.246680 -0.239640 -0.231540 -0.228780 -0.231020 -0.225070 -0.212910 -0.207730 -0.204160 -0.195700 -0.192740 -0.196560 -0.195450 -0.190310 -0.189650 -0.189590 -0.185070 -0.184930 -0.194290 -0.198960 -0.190190 -0.183630 -0.190170 -0.196990 -0.195280 -0.191160 -0.188370 -0.189160 -0.194000 -0.193580 -0.184230 -0.175140 -0.171270 -0.172230 -0.179150 -0.186390 -0.183980 -0.175370 -0.171180 -0.166960 -0.155650 -0.146510 -0.144150 -0.138440 -0.127070 -0.115960 -0.105020 -0.092904 -0.081928 -0.076181 -0.077804 -0.081836 -0.082681 -0.080476 -0.076168 -0.074262 -0.080097 -0.087554 -0.090827 -0.097996 -0.110310 -0.113270 -0.106910 -0.110400 -0.123720 -0.127000 -0.121340 -0.121040 -0.119980 -0.109710 -0.100400 -0.098770 -0.098805 -0.098449 -0.099764 -0.098628 -0.091457 -0.083846 -0.081907 -0.085208 -0.090612 -0.093148 -0.089749 -0.085762 -0.087878 -0.095412 -0.102490 -0.104480 -0.103980 -0.106380 -0.110460 -0.114040 -0.118650 -0.121560 -0.121250 -0.123130 -0.127520 -0.131200 -0.135400 -0.138680 -0.141690 -0.149080 -0.155900 -0.159060 -0.165920 -0.172830 -0.172750 -0.173590 -0.178650 -0.182180 -0.188430 -0.202800 -0.218840 -0.228030 -0.228690 -0.224840 -0.220860 -0.217110 -0.213060 -0.211100 -0.212210 -0.212370 -0.212100 -0.219340 -0.231660 -0.236410 -0.234360 -0.237290 -0.247500 -0.258970 -0.267050 -0.269260 -0.268710 -0.275550 -0.288230 -0.290550 -0.285340 -0.289900 -0.297790 -0.300530 -0.311030 -0.327930 -0.335670 -0.338080 -0.343170 -0.347000 -0.349610 -0.354480 -0.358380 -0.360520 -0.366350 -0.374460 -0.377030 -0.375980 -0.379570 -0.387470 -0.394220 -0.398010 -0.399180 -0.398370 -0.398150 -0.400920 -0.405310 -0.409150 -0.410930 -0.409390 -0.409070 -0.413630 -0.415220 -0.410750 -0.410730 -0.417330 -0.421110 -0.421080 -0.421110 -0.417280 -0.410490 -0.410950 -0.415550 -0.411320 -0.402010 -0.398600 -0.398920 -0.398380 -0.398470 -0.398930 -0.398380 -0.398450 -0.399080 -0.398190 -0.398230 -0.400100 -0.396700 -0.388520 -0.385780 -0.387810 -0.387550 -0.387000 -0.386980 -0.382850 -0.377060 -0.376460 -0.380760 -0.385260 -0.387830 -0.387710 -0.384310 -0.380730 -0.381270 -0.383000 -0.380060 -0.376130 -0.378370 -0.382690 -0.382080 -0.380490 -0.382510 -0.382330 -0.375520 -0.368020 -0.364880 -0.364480 -0.364680 -0.364680 -0.366590 -0.372870 -0.376340 -0.370100 -0.362210 -0.359330 -0.356110 -0.352100 -0.353030 -0.355440 -0.349970 -0.337730 -0.330000 -0.333020 -0.341390 -0.344490 -0.339470 -0.336320 -0.340200 -0.341610 -0.336870 -0.335180 -0.336590 -0.331510 -0.324850 -0.326460 -0.325700 -0.316380 -0.314650 -0.319410 -0.316280 -0.313290 -0.313960 -0.309600 -0.309040 -0.313740 -0.311100 -0.306440 -0.302860 -0.294500 -0.290440 -0.291280 -0.287290 -0.285430 -0.285690 -0.278330 -0.272550 -0.274170 -0.274410 -0.274470 -0.274330 -0.267430 -0.259700 -0.257280 -0.256690 -0.258430 -0.262860 -0.266600 -0.270370 -0.274220 -0.277260 -0.283470 -0.291220 -0.287570 -0.270840 -0.262950 -0.275840 -0.295400 -0.314090 -0.334050 -0.349550 -0.365140 -0.386300 -0.394960 -0.381250 -0.356660 -0.324320 -0.284280 -0.243160 -0.201600 -0.159490 -0.113690 -0.054492  0.011461  0.068912  0.121070  0.175590  0.233330  0.301750  0.387470  0.489520  0.604340  0.723480  0.842460  0.963350  1.073700  1.163100  1.255000  1.377100  1.529900  1.704700  1.891300  2.075700  2.251600  2.423100  2.608500  2.821200  3.038800  3.242600  3.458700  3.707200  3.976100  4.245200  4.485400  4.690500  4.896200  5.114400  5.324800  5.525700  5.717200  5.893800  6.058500  6.196700  6.298000  6.389700  6.488500  6.577400  6.635500  6.642300  6.597600  6.531900  6.449500  6.322400  6.136600  5.882200  5.559300  5.204500  4.852000  4.522000  4.240900  4.003200  3.765000  3.497700  3.194100  2.855100  2.510400  2.201500  1.933500  1.685100  1.427800  1.111300  0.702900  0.231460 -0.259220 -0.748360 -1.221800 -1.675400 -2.102800 -2.472100 -2.767500 -3.006800 -3.196100 -3.329100 -3.411000 -3.448100 -3.450500 -3.439300 -3.420800 -3.382900 -3.326200 -3.273400 -3.239000 -3.219000 -3.207500 -3.193400 -3.161600 -3.111000 -3.047100 -2.970200 
Shapelet   3   0.310870  0.316790  0.316150  0.318160  0.314660  0.306160  0.311230  0.316120  0.307460  0.308110  0.319280  0.318020  0.309080  0.304740  0.297090  0.286390  0.287120  0.295110  0.296010  0.296960  0.305610  0.309000  0.301840  0.222480  0.222340  0.239850  0.232320  0.223390  0.221930  0.222870  0.230780  0.231560  0.221210  0.219800  0.228700  0.233130  0.232790  0.233870  0.231890  0.224240  0.220630  0.223320  0.223160  0.220700  0.224550  0.232070  0.234240  0.232330  0.232700  0.234120  0.230970  0.223110  0.219220  0.228060  0.242940  0.247020  0.238700  0.232910  0.233580  0.230180  0.222130  0.220430  0.226640  0.233560  0.240620  0.246280  0.242200  0.234000  0.233540  0.231940  0.223840  0.224620  0.235490  0.242400  0.247540  0.255920  0.255570  0.245910  0.243960  0.244330  0.235520  0.234550  0.242840  0.243070  0.245990  0.253670  0.248430  0.241570  0.243310  0.243040  0.245970  0.253890  0.254890  0.253500  0.253680  0.247140  0.240500  0.244000  0.245840  0.237220  0.233250  0.240920  0.245050  0.243390  0.250490  0.258840  0.250700  0.242530  0.250630  0.252480  0.243910  0.247930  0.254990  0.253670  0.259430  0.264520  0.255040  0.249780  0.258000  0.264130  0.264110  0.264850  0.264300  0.257740  0.251560  0.253920  0.256190  0.249090  0.243240  0.243680  0.242100  0.244070  0.252200  0.253710  0.254570  0.262790  0.261920  0.252220  0.252230  0.256620  0.251830  0.244080  0.246010  0.257400  0.264400  0.259230  0.252220  0.253260  0.255510  0.252350  0.253160  0.261330  0.264610  0.264160  0.265880  0.260700  0.253820  0.254700  0.250180  0.243320  0.249410  0.258050  0.264910  0.273680  0.271920  0.263380  0.257140  0.246670  0.244200  0.253020  0.249540  0.243310  0.251500  0.255490  0.254160  0.262130  0.267520  0.261950  0.254750  0.251780  0.256130  0.263580  0.265220  0.264010  0.264350  0.259380  0.250560  0.253300  0.263620  0.261060  0.253800  0.259490  0.268310  0.275010  0.283700  0.282890  0.274110  0.273310  0.275900  0.274440  0.274270  0.275140  0.274580  0.274580  0.274760  0.274750  0.275020  0.271380  0.261330  0.253930  0.257810  0.266980  0.273830  0.276710  0.272280  0.264830  0.263350  0.264540  0.264240  0.264540  0.263610  0.264080  0.270930  0.276460  0.274660  0.273570  0.275940  0.274500  0.272840  0.279210  0.285370  0.285180  0.285940  0.284440  0.276730  0.273740  0.274390  0.267150  0.260490  0.266400  0.274110  0.274230  0.275420  0.275800  0.267930  0.264200  0.264910  0.257300  0.254550  0.263180  0.270120  0.278780  0.285220  0.278070  0.275790  0.284920  0.281470  0.269980  0.274830  0.285000  0.282960  0.285670  0.295940  0.288480  0.273830  0.273990  0.271990  0.263340  0.263330  0.264490  0.264840  0.272480  0.276750  0.274020  0.274150  0.275800  0.273500  0.265990  0.260240  0.268610  0.283610  0.287230  0.284390  0.285120  0.281140  0.270090  0.264310  0.264790  0.263290  0.264120  0.271940  0.274180  0.263980  0.255160  0.252480  0.242360  0.226490  0.221140  0.222370  0.215700  0.208680  0.213190  0.215090  0.202070  0.189470  0.183110  0.173980  0.170490  0.171500  0.163400  0.160990  0.169610  0.166500  0.158310  0.159890  0.152030  0.131950  0.127730  0.137970  0.136510  0.128750  0.129400  0.125680  0.118150  0.119150  0.113350  0.096792  0.088086  0.086333  0.087002  0.088999  0.079849  0.064512  0.057663  0.049303  0.031659  0.016961  0.008858  0.002311  0.002121  0.007081 -0.000211 -0.022579 -0.041203 -0.051681 -0.066268 -0.083279 -0.092637 -0.099503 -0.112690 -0.125930 -0.131950 -0.136930 -0.147830 -0.162880 -0.177600 -0.188840 -0.195030 -0.195690 -0.193200 -0.195290 -0.207680 -0.224980 -0.237470 -0.244280 -0.250880 -0.258470 -0.265270 -0.272150 -0.279570 -0.286410 -0.293390 -0.300640 -0.307530 -0.314980 -0.321080 -0.320960 -0.314440 -0.307940 -0.308600 -0.315480 -0.321570 -0.328890 -0.346710 -0.370130 -0.382490 -0.382240 -0.384100 -0.392910 -0.400840 -0.404070 -0.403840 -0.407590 -0.422360 -0.435400 -0.436010 -0.432310 -0.423380 -0.407940 -0.398990 -0.391700 


; cmd = /home/grad00/soren885/capstone/ShapeletResearch/Execs/FastShapelet /home/grad00/soren885/capstone/Shapelet_Datasets/UCR_CV_DATA/CinC_ECG_torso_TRAIN_CV1 4 19 820 1 2 10 correlation 1 0 10 ./cv_output/CinC_ECG_torso_CV1/CinC_ECG_torso_CV1_correlation_unnormed_CID_tree.txt ./cv_output/CinC_ECG_torso_CV1/CinC_ECG_torso_CV1_correlation_unnormed_CID_time.txt
; time =>  754.610   5.672  24.868   1.999 719.370 
; command = /home/grad00/soren885/capstone/ShapeletResearch/Execs/Classify /home/grad00/soren885/capstone/Shapelet_Datasets/UCR_CV_DATA/CinC_ECG_torso_TRAIN_CV2 4 21 correlation 1 0 ./cv_output/CinC_ECG_torso_CV1/CinC_ECG_torso_CV1_correlation_unnormed_CID_tree.txt ./cv_output/CinC_ECG_torso_CV1/CinC_ECG_torso_CV1_correlation_unnormed_CID_acc.txt
; accuracy= 47.619   Correct:10 , Wrong: 11


;   == Confusion Matrix ==
;   real |   1    2    3    4 
;   -----+------------------------
;   p  1 |   0    0    0    0 
;   p  2 |   3    3    1    2 
;   p  3 |   0    0    5    1 
;   p  4 |   0    4    0    2 

