;Shapelet Tree 

;random seed:1502304718, rand()=168339579, rand()=1647253336
;command = /home/grad00/soren885/capstone/ShapeletResearch/Execs/FastShapelet ./Shapelet_Datasets/UCR_CV_DATA/CinC_ECG_torso_TRAIN_CV1 4 19 820 1 2 10 manhattan 1 1 10 ./cv_output/CinC_ECG_torso_CV1/CinC_ECG_torso_CV1_manhattan_normed_CID_tree.txt ./cv_output/CinC_ECG_torso_CV1/CinC_ECG_torso_CV1_manhattan_normed_CID_time.txt 

;Local Class:   0  1  2  3 
;Real  Class:   1  2  3  4 

;Node ID class   obj  pos  len  dist_th 
TreeSize: 8 
NonL  1    --     12   98  763  638.8387 ==>   0   6   6   0  /   2   0   0   5 
NonL  2    --      0   14   21   4.8215 ==>   0   6   0   0  /   0   0   6   0 
NonL  3    --      4  683  663  1826.9776 ==>   0   0   0   5  /   2   0   0   0 
Leaf  4     2    
Leaf  5     3    
Leaf  6     4    
Leaf  7     1    

;Shapelet id   <data>
Shapelet   1  -0.099429 -0.098884 -0.098779 -0.098560 -0.099662 -0.098416 -0.094155 -0.093892 -0.099918 -0.107690 -0.113940 -0.115710 -0.112060 -0.107130 -0.104230 -0.103910 -0.106930 -0.110480 -0.107470 -0.098042 -0.093074 -0.096920 -0.102350 -0.104620 -0.101480 -0.092451 -0.087437 -0.091730 -0.093410 -0.085761 -0.077770 -0.073761 -0.069866 -0.069366 -0.074500 -0.075843 -0.071519 -0.070408 -0.070169 -0.065904 -0.065647 -0.072033 -0.075948 -0.077686 -0.083233 -0.084071 -0.073233 -0.063586 -0.060552 -0.053745 -0.047145 -0.047798 -0.046077 -0.041753 -0.045685 -0.054739 -0.060070 -0.060023 -0.056383 -0.052909 -0.049407 -0.042156 -0.035535 -0.035892 -0.038288 -0.035447 -0.031248 -0.032956 -0.037755 -0.037595 -0.032843 -0.031234 -0.035431 -0.040259 -0.043099 -0.046994 -0.050111 -0.046034 -0.037970 -0.033435 -0.029737 -0.025618 -0.027139 -0.032689 -0.036298 -0.037106 -0.036751 -0.040833 -0.048036 -0.046316 -0.041882 -0.048844 -0.053590 -0.044345 -0.036362 -0.037832 -0.041741 -0.043720 -0.040864 -0.036756 -0.039144 -0.043299 -0.042528 -0.043448 -0.051189 -0.058676 -0.059875 -0.059612 -0.063986 -0.069642 -0.070062 -0.065637 -0.061039 -0.058878 -0.059128 -0.059715 -0.058954 -0.059012 -0.062205 -0.066566 -0.070135 -0.073980 -0.077250 -0.076569 -0.072629 -0.069978 -0.070370 -0.073102 -0.079084 -0.086841 -0.091817 -0.094249 -0.098344 -0.103210 -0.104720 -0.104410 -0.107340 -0.111760 -0.110550 -0.105270 -0.106220 -0.115090 -0.121660 -0.120070 -0.115990 -0.115070 -0.116990 -0.121150 -0.125680 -0.128140 -0.132430 -0.138180 -0.136800 -0.132800 -0.136140 -0.138600 -0.133080 -0.127830 -0.127760 -0.132540 -0.138030 -0.137610 -0.138280 -0.146250 -0.151400 -0.155230 -0.166580 -0.175660 -0.178000 -0.182130 -0.183230 -0.178090 -0.179410 -0.187990 -0.189380 -0.181580 -0.176600 -0.178050 -0.176060 -0.168530 -0.166750 -0.171530 -0.171090 -0.166700 -0.169270 -0.174590 -0.172280 -0.169890 -0.177150 -0.183760 -0.183120 -0.186800 -0.195230 -0.196520 -0.193800 -0.195120 -0.195930 -0.193830 -0.195240 -0.202480 -0.210120 -0.211920 -0.208350 -0.203990 -0.200520 -0.199770 -0.201870 -0.200440 -0.198630 -0.205700 -0.212130 -0.211170 -0.216020 -0.223580 -0.220530 -0.214570 -0.211780 -0.210480 -0.216600 -0.223550 -0.220240 -0.214810 -0.211620 -0.207140 -0.207390 -0.212510 -0.216240 -0.220160 -0.223560 -0.226450 -0.234540 -0.240330 -0.233250 -0.223860 -0.223620 -0.224580 -0.219860 -0.217940 -0.225280 -0.233730 -0.234230 -0.230030 -0.228260 -0.229090 -0.229190 -0.228600 -0.229070 -0.229230 -0.228290 -0.229370 -0.233330 -0.235720 -0.234270 -0.233760 -0.237180 -0.240800 -0.244530 -0.246840 -0.237790 -0.224480 -0.227930 -0.242760 -0.250680 -0.252440 -0.250950 -0.246520 -0.247350 -0.252340 -0.252340 -0.250470 -0.252020 -0.252350 -0.248690 -0.245520 -0.245470 -0.247680 -0.253050 -0.260990 -0.265050 -0.261740 -0.257440 -0.258910 -0.264060 -0.267940 -0.269140 -0.268250 -0.268030 -0.271070 -0.275070 -0.278690 -0.283470 -0.285370 -0.281170 -0.277750 -0.281420 -0.289420 -0.293820 -0.289240 -0.281220 -0.276960 -0.272860 -0.268690 -0.270670 -0.275270 -0.278790 -0.284010 -0.284610 -0.276150 -0.270930 -0.276480 -0.284320 -0.288610 -0.292320 -0.296250 -0.297690 -0.296050 -0.292130 -0.287470 -0.285130 -0.285330 -0.287100 -0.294070 -0.306130 -0.312120 -0.304530 -0.292630 -0.288920 -0.292640 -0.296450 -0.297410 -0.296360 -0.296450 -0.299970 -0.303080 -0.302600 -0.304020 -0.310540 -0.314030 -0.310430 -0.307670 -0.308140 -0.307830 -0.308620 -0.308610 -0.304060 -0.303090 -0.307770 -0.306740 -0.300020 -0.296910 -0.297190 -0.296060 -0.291940 -0.284930 -0.276760 -0.269400 -0.262180 -0.254020 -0.246680 -0.239640 -0.231540 -0.228780 -0.231020 -0.225070 -0.212910 -0.207730 -0.204160 -0.195700 -0.192740 -0.196560 -0.195450 -0.190310 -0.189650 -0.189590 -0.185070 -0.184930 -0.194290 -0.198960 -0.190190 -0.183630 -0.190170 -0.196990 -0.195280 -0.191160 -0.188370 -0.189160 -0.194000 -0.193580 -0.184230 -0.175140 -0.171270 -0.172230 -0.179150 -0.186390 -0.183980 -0.175370 -0.171180 -0.166960 -0.155650 -0.146510 -0.144150 -0.138440 -0.127070 -0.115960 -0.105020 -0.092904 -0.081928 -0.076181 -0.077804 -0.081836 -0.082681 -0.080476 -0.076168 -0.074262 -0.080097 -0.087554 -0.090827 -0.097996 -0.110310 -0.113270 -0.106910 -0.110400 -0.123720 -0.127000 -0.121340 -0.121040 -0.119980 -0.109710 -0.100400 -0.098770 -0.098805 -0.098449 -0.099764 -0.098628 -0.091457 -0.083846 -0.081907 -0.085208 -0.090612 -0.093148 -0.089749 -0.085762 -0.087878 -0.095412 -0.102490 -0.104480 -0.103980 -0.106380 -0.110460 -0.114040 -0.118650 -0.121560 -0.121250 -0.123130 -0.127520 -0.131200 -0.135400 -0.138680 -0.141690 -0.149080 -0.155900 -0.159060 -0.165920 -0.172830 -0.172750 -0.173590 -0.178650 -0.182180 -0.188430 -0.202800 -0.218840 -0.228030 -0.228690 -0.224840 -0.220860 -0.217110 -0.213060 -0.211100 -0.212210 -0.212370 -0.212100 -0.219340 -0.231660 -0.236410 -0.234360 -0.237290 -0.247500 -0.258970 -0.267050 -0.269260 -0.268710 -0.275550 -0.288230 -0.290550 -0.285340 -0.289900 -0.297790 -0.300530 -0.311030 -0.327930 -0.335670 -0.338080 -0.343170 -0.347000 -0.349610 -0.354480 -0.358380 -0.360520 -0.366350 -0.374460 -0.377030 -0.375980 -0.379570 -0.387470 -0.394220 -0.398010 -0.399180 -0.398370 -0.398150 -0.400920 -0.405310 -0.409150 -0.410930 -0.409390 -0.409070 -0.413630 -0.415220 -0.410750 -0.410730 -0.417330 -0.421110 -0.421080 -0.421110 -0.417280 -0.410490 -0.410950 -0.415550 -0.411320 -0.402010 -0.398600 -0.398920 -0.398380 -0.398470 -0.398930 -0.398380 -0.398450 -0.399080 -0.398190 -0.398230 -0.400100 -0.396700 -0.388520 -0.385780 -0.387810 -0.387550 -0.387000 -0.386980 -0.382850 -0.377060 -0.376460 -0.380760 -0.385260 -0.387830 -0.387710 -0.384310 -0.380730 -0.381270 -0.383000 -0.380060 -0.376130 -0.378370 -0.382690 -0.382080 -0.380490 -0.382510 -0.382330 -0.375520 -0.368020 -0.364880 -0.364480 -0.364680 -0.364680 -0.366590 -0.372870 -0.376340 -0.370100 -0.362210 -0.359330 -0.356110 -0.352100 -0.353030 -0.355440 -0.349970 -0.337730 -0.330000 -0.333020 -0.341390 -0.344490 -0.339470 -0.336320 -0.340200 -0.341610 -0.336870 -0.335180 -0.336590 -0.331510 -0.324850 -0.326460 -0.325700 -0.316380 -0.314650 -0.319410 -0.316280 -0.313290 -0.313960 -0.309600 -0.309040 -0.313740 -0.311100 -0.306440 -0.302860 -0.294500 -0.290440 -0.291280 -0.287290 -0.285430 -0.285690 -0.278330 -0.272550 -0.274170 -0.274410 -0.274470 -0.274330 -0.267430 -0.259700 -0.257280 -0.256690 -0.258430 -0.262860 -0.266600 -0.270370 -0.274220 -0.277260 -0.283470 -0.291220 -0.287570 -0.270840 -0.262950 -0.275840 -0.295400 -0.314090 -0.334050 -0.349550 -0.365140 -0.386300 -0.394960 -0.381250 -0.356660 -0.324320 -0.284280 -0.243160 -0.201600 -0.159490 -0.113690 -0.054492  0.011461  0.068912  0.121070  0.175590  0.233330  0.301750  0.387470  0.489520  0.604340  0.723480  0.842460  0.963350  1.073700  1.163100  1.255000  1.377100  1.529900  1.704700  1.891300  2.075700  2.251600  2.423100  2.608500  2.821200  3.038800  3.242600  3.458700  3.707200  3.976100  4.245200  4.485400  4.690500  4.896200  5.114400  5.324800  5.525700  5.717200  5.893800  6.058500  6.196700  6.298000  6.389700  6.488500  6.577400  6.635500  6.642300  6.597600  6.531900  6.449500  6.322400  6.136600  5.882200  5.559300  5.204500  4.852000  4.522000  4.240900  4.003200  3.765000  3.497700  3.194100  2.855100  2.510400  2.201500  1.933500  1.685100  1.427800  1.111300  0.702900  0.231460 -0.259220 -0.748360 -1.221800 -1.675400 -2.102800 -2.472100 -2.767500 -3.006800 -3.196100 -3.329100 -3.411000 -3.448100 -3.450500 -3.439300 -3.420800 -3.382900 -3.326200 -3.273400 -3.239000 -3.219000 -3.207500 -3.193400 -3.161600 -3.111000 -3.047100 -2.970200 -2.880100 -2.777800 
Shapelet   2  -0.113100 -0.110100 -0.108990 -0.109470 -0.109150 -0.110180 -0.113110 -0.114100 -0.113760 -0.115810 -0.118890 -0.121270 -0.124410 -0.126710 -0.124960 -0.121990 -0.121880 -0.122790 -0.122500 -0.122200 -0.122530 
Shapelet   3   0.429600  0.430020  0.436870  0.444370  0.459230  0.485570  0.514450  0.534230  0.542990  0.548170  0.555940  0.564220  0.567330  0.566930  0.571600  0.584310  0.598620  0.607060  0.608780  0.608680  0.608760  0.607710  0.609080  0.615830  0.623850  0.630510  0.637400  0.644930  0.651310  0.651620  0.644650  0.639000  0.639410  0.640350  0.639500  0.639690  0.640190  0.639420  0.639720  0.640490  0.638970  0.639650  0.641840  0.636110  0.629570  0.634980  0.641900  0.640040  0.638540  0.640770  0.639900  0.638760  0.640970  0.639650  0.637790  0.645060  0.650250  0.642790  0.637320  0.640490  0.640630  0.638450  0.640390  0.640550  0.637820  0.641620  0.649510  0.647460  0.636230  0.629680  0.629630  0.628690  0.628960  0.635310  0.641270  0.640220  0.638470  0.640950  0.640200  0.632760  0.627710  0.629590  0.630490  0.627730  0.629820  0.637280  0.640990  0.639690  0.633790  0.620040  0.607540  0.606990  0.610080  0.608000  0.607550  0.610400  0.607000  0.599240  0.597480  0.597470  0.589910  0.580290  0.576570  0.576880  0.581680  0.590300  0.588930  0.578310  0.579680  0.587640  0.582220  0.575130  0.577270  0.577410  0.578740  0.587910  0.590800  0.582380  0.577310  0.578060  0.573480  0.566420  0.565870  0.567410  0.566720  0.566630  0.566650  0.566980  0.567420  0.562630  0.554870  0.554790  0.562480  0.567400  0.566960  0.566980  0.565730  0.558030  0.548770  0.545330  0.545930  0.545970  0.545840  0.546040  0.545760  0.546000  0.546070  0.545890  0.544630  0.535390  0.524870  0.529130  0.535600  0.528520  0.523220  0.525170  0.518950  0.508130  0.503800  0.497490  0.485980  0.484150  0.492060  0.495010  0.493130  0.486500  0.470820  0.461300  0.462630  0.457560  0.450540  0.451720  0.452360  0.452210  0.452410  0.446250  0.438750  0.431790  0.422570  0.422330  0.431110  0.433260  0.428070  0.420580  0.412360  0.409830  0.410210  0.403830  0.394650  0.388870  0.382200  0.373390  0.368140  0.368120  0.369280  0.367970  0.361260  0.348030  0.334320  0.327430  0.326490  0.326920  0.326900  0.326970  0.326150  0.318340  0.303440  0.292170  0.285790  0.278450  0.272320  0.264790  0.255430  0.254710  0.253870  0.240150  0.228150  0.222190  0.208790  0.195050  0.191100  0.191060  0.191890  0.190730  0.183890  0.175950  0.169170  0.162100  0.155510  0.147690  0.140440  0.135660  0.125110  0.110330  0.102150  0.094259  0.079362  0.064522  0.050760  0.036360  0.027349  0.022414  0.014608  0.006915  0.000198 -0.016488 -0.040085 -0.052720 -0.059346 -0.073187 -0.084625 -0.091007 -0.103910 -0.119770 -0.133560 -0.147670 -0.160350 -0.176680 -0.198640 -0.212410 -0.216310 -0.222700 -0.234840 -0.250520 -0.264720 -0.276110 -0.294340 -0.316150 -0.330770 -0.345860 -0.360310 -0.365650 -0.378200 -0.401030 -0.416090 -0.431020 -0.453960 -0.474750 -0.496790 -0.518010 -0.525910 -0.532510 -0.550100 -0.570550 -0.591620 -0.613580 -0.633810 -0.655780 -0.676740 -0.690620 -0.702940 -0.719160 -0.739460 -0.762670 -0.782400 -0.802230 -0.831250 -0.856540 -0.869690 -0.883270 -0.896950 -0.910640 -0.932410 -0.949900 -0.963490 -0.990430 -1.015100 -1.028000 -1.047200 -1.067100 -1.080900 -1.100600 -1.119700 -1.133900 -1.153600 -1.172700 -1.186900 -1.206100 -1.226600 -1.239300 -1.251300 -1.268000 -1.281400 -1.293300 -1.313500 -1.335200 -1.354900 -1.379500 -1.396700 -1.402200 -1.414400 -1.428000 -1.433800 -1.449600 -1.473200 -1.486300 -1.501600 -1.527600 -1.540800 -1.537700 -1.544400 -1.560600 -1.567800 -1.575400 -1.592400 -1.606900 -1.617000 -1.624900 -1.629600 -1.638600 -1.646000 -1.644000 -1.646900 -1.656700 -1.662300 -1.671700 -1.689100 -1.697400 -1.691900 -1.686600 -1.686100 -1.686000 -1.687000 -1.687200 -1.681700 -1.674800 -1.675200 -1.678500 -1.672900 -1.658300 -1.647200 -1.643300 -1.636600 -1.622300 -1.608500 -1.603900 -1.600500 -1.581700 -1.553300 -1.535100 -1.523000 -1.500200 -1.474600 -1.460900 -1.447000 -1.423700 -1.406600 -1.393800 -1.366500 -1.332300 -1.309200 -1.288800 -1.260200 -1.234900 -1.220700 -1.205500 -1.179800 -1.151200 -1.124800 -1.093600 -1.057900 -1.027100 -0.999990 -0.971850 -0.948070 -0.927690 -0.898950 -0.862140 -0.829420 -0.802760 -0.775080 -0.743420 -0.708230 -0.676080 -0.654560 -0.633620 -0.604550 -0.577090 -0.548580 -0.511850 -0.482100 -0.464890 -0.444390 -0.419580 -0.401690 -0.388020 -0.369960 -0.347010 -0.319020 -0.287930 -0.263040 -0.242470 -0.218990 -0.201460 -0.188320 -0.166990 -0.148340 -0.135450 -0.110760 -0.079780 -0.052354 -0.026875 -0.014053 -0.008055  0.006775  0.017221  0.023680  0.039015  0.048191  0.055502  0.077444  0.092868  0.097618  0.111560  0.124070  0.129240  0.142540  0.159570  0.172010  0.186200  0.198510  0.202040  0.208340  0.220680  0.221520  0.219780  0.238110  0.257410  0.262850  0.274390  0.288730  0.294610  0.302080  0.306530  0.305680  0.312120  0.317430  0.316340  0.321770  0.330330  0.337030  0.345620  0.346310  0.337210  0.334660  0.341310  0.348070  0.354740  0.362860  0.369000  0.369520  0.367310  0.369050  0.369780  0.365990  0.370270  0.378570  0.376990  0.381730  0.397600  0.397960  0.387100  0.388210  0.391850  0.387930  0.388480  0.396170  0.400700  0.400040  0.399540  0.399980  0.399920  0.399900  0.399680  0.399910  0.400360  0.398930  0.400020  0.407150  0.411930  0.410190  0.409470  0.411200  0.410090  0.409090  0.414320  0.421570  0.421960  0.418810  0.421680  0.422560  0.414000  0.410410  0.411170  0.406690  0.414540  0.430200  0.426240  0.420950  0.430190  0.428560  0.416470  0.410670  0.408540  0.413330  0.420620  0.419940  0.423850  0.431220  0.425380  0.418320  0.420900  0.421700  0.419690  0.421020  0.427120  0.437140  0.441670  0.440500  0.446380  0.452180  0.444900  0.437810  0.443470  0.451130  0.452300  0.452110  0.452230  0.451330  0.452660  0.452820  0.446120  0.440450  0.441380  0.441720  0.442530  0.450990  0.460430  0.462460  0.462470  0.463680  0.459490  0.452170  0.450900  0.452560  0.452130  0.457300  0.468960  0.472750  0.465370  0.460510  0.462890  0.463320  0.461120  0.463010  0.463560  0.459910  0.464350  0.472630  0.468420  0.461520  0.462460  0.458440  0.449990  0.450920  0.458020  0.464740  0.472090  0.475390  0.469860  0.462870  0.461860  0.462360  0.462450  0.467900  0.477370  0.483440  0.478920  0.466070  0.462710  0.465720  0.453320  0.441440  0.448610  0.453300  0.452360  0.459820  0.463970  0.462410  0.463350  0.455030  0.438220  0.431150  0.431580  0.431330  0.438740  0.451050  0.449830  0.441830  0.446850  0.452280  0.443070  0.437380  0.445670  0.452010  0.451140  0.454390  0.462320  0.464550  0.459280  0.452070  0.444590  0.439460  0.441990  0.449510  0.453340  0.451880  0.451290  0.453180  0.451430  0.444320  0.436440  0.430280 


; cmd = /home/grad00/soren885/capstone/ShapeletResearch/Execs/FastShapelet ./Shapelet_Datasets/UCR_CV_DATA/CinC_ECG_torso_TRAIN_CV1 4 19 820 1 2 10 manhattan 1 1 10 ./cv_output/CinC_ECG_torso_CV1/CinC_ECG_torso_CV1_manhattan_normed_CID_tree.txt ./cv_output/CinC_ECG_torso_CV1/CinC_ECG_torso_CV1_manhattan_normed_CID_time.txt
; time =>  790.160   6.320  26.300   2.152 752.676 
; command = /home/grad00/soren885/capstone/ShapeletResearch/Execs/Classify ./Shapelet_Datasets/UCR_CV_DATA/CinC_ECG_torso_TRAIN_CV2 4 21 manhattan 1 1 ./cv_output/CinC_ECG_torso_CV1/CinC_ECG_torso_CV1_manhattan_normed_CID_tree.txt ./cv_output/CinC_ECG_torso_CV1/CinC_ECG_torso_CV1_manhattan_normed_CID_acc.txt
; accuracy= 38.095   Correct:8 , Wrong: 13


;   == Confusion Matrix ==
;   real |   1    2    3    4 
;   -----+------------------------
;   p  1 |   0    0    0    0 
;   p  2 |   0    1    1    0 
;   p  3 |   1    0    5    3 
;   p  4 |   2    6    0    2 

