;Shapelet Tree 

;random seed:1502360214, rand()=367863735, rand()=482278218
;command = /home/grad00/soren885/capstone/ShapeletResearch/Execs/FastShapelet ./Shapelet_Datasets/UCR_CV_DATA/CinC_ECG_torso_TRAIN_CV2 4 21 820 1 2 10 euclidean 0 0 10 ./cv_output/CinC_ECG_torso_CV2/CinC_ECG_torso_CV2_euclidean_unnormed_NOCID_tree.txt ./cv_output/CinC_ECG_torso_CV2/CinC_ECG_torso_CV2_euclidean_unnormed_NOCID_time.txt 

;Local Class:   0  1  2  3 
;Real  Class:   1  2  3  4 

;Node ID class   obj  pos  len  dist_th 
TreeSize: 16 
NonL  1    --      3    5  749  39.1149 ==>   0   7   5   0  /   3   0   1   5 
NonL  2    --      0  342   31   0.4331 ==>   0   7   0   0  /   0   0   5   0 
NonL  3    --      4  974  311   7.6319 ==>   0   0   0   5  /   3   0   1   0 
Leaf  4     2    
Leaf  5     3    
Leaf  6     4    
NonL  7    --      0  630   43  19.2398 ==>   3   0   0   0  /   0   0   1   0 
Leaf 14     1    
Leaf 15     3    

;Shapelet id   <data>
Shapelet   1   0.256370  0.266100  0.281310  0.283200  0.282470  0.285390  0.270140  0.238020  0.223970  0.237630  0.254190  0.259240  0.258370  0.257600  0.258200  0.258580  0.257550  0.257590  0.259280  0.257990  0.255350  0.261640  0.277000  0.287110  0.282330  0.268530  0.254280  0.240000  0.228510  0.232590  0.256820  0.288290  0.316880  0.341590  0.353520  0.344770  0.327310  0.313330  0.298970  0.284640  0.274280  0.256370  0.225940  0.205480  0.207750  0.214080  0.210460  0.206820  0.213810  0.228790  0.239830  0.235220  0.218980  0.209310  0.209970  0.209660  0.209660  0.220860  0.236330  0.238420  0.230390  0.231890  0.246800  0.258790  0.259580  0.257610  0.258080  0.257360  0.258270  0.269490  0.288630  0.303130  0.307860  0.305950  0.295740  0.276120  0.260180  0.258850  0.258840  0.245950  0.232450  0.232010  0.235780  0.234650  0.233610  0.234280  0.233400  0.237300  0.253090  0.272530  0.282180  0.282320  0.282110  0.282400  0.280600  0.281920  0.285390  0.278190  0.262480  0.255470  0.257940  0.258310  0.258470  0.259920  0.252390  0.236480  0.222240  0.207670  0.191600  0.185290  0.186970  0.179540  0.160770  0.143920  0.138750  0.154010  0.192760  0.235400  0.256590  0.257120  0.256190  0.265410  0.281390  0.288740  0.277460  0.261830  0.254290  0.237380  0.203690  0.185980  0.200690  0.216180  0.211980  0.206940  0.211140  0.212410  0.208920  0.209550  0.212870  0.209940  0.196890  0.181640  0.181590  0.204390  0.234200  0.252700  0.259290  0.259330  0.255860  0.257530  0.270560  0.284440  0.285810  0.274850  0.259940  0.252080  0.260690  0.277650  0.280380  0.262830  0.242780  0.233900  0.233380  0.234940  0.235190  0.228110  0.209780  0.190620  0.188250  0.203640  0.221950  0.233980  0.237490  0.232480  0.230620  0.243150  0.257330  0.259000  0.258500  0.260730  0.251280  0.235600  0.239120  0.261270  0.278320  0.283050  0.282790  0.275280  0.256730  0.238790  0.234050  0.235360  0.227450  0.210530  0.195270  0.182630  0.167960  0.157730  0.161950  0.176310  0.189470  0.202690  0.220610  0.233580  0.233780  0.235470  0.249820  0.262870  0.260410  0.246900  0.233230  0.229800  0.238420  0.238770  0.214550  0.186050  0.180030  0.191160  0.205020  0.221610  0.234130  0.226250  0.205140  0.202090  0.228200  0.256280  0.262570  0.257040  0.256010  0.262200  0.278070  0.299380  0.305040  0.290140  0.278920  0.281110  0.281900  0.282290  0.295790  0.308010  0.291940  0.261800  0.258030  0.277600  0.278940  0.261110  0.262790  0.281090  0.277310  0.251800  0.235110  0.237950  0.254980  0.275270  0.281760  0.278730  0.289080  0.304780  0.298680  0.280550  0.277620  0.284140  0.282730  0.285030  0.306540  0.328550  0.325610  0.309140  0.304790  0.305940  0.293930  0.279000  0.279000  0.284840  0.282530  0.279010  0.283080  0.285270  0.275310  0.260190  0.253550  0.259460  0.273400  0.287050  0.285860  0.262510  0.232650  0.215010  0.208930  0.208750  0.217620  0.234170  0.250120  0.260280  0.260480  0.254040  0.257160  0.273690  0.281800  0.267870  0.247460  0.235370  0.230250  0.236660  0.263330  0.296700  0.307500  0.292580  0.281900  0.294280  0.311050  0.309020  0.299040  0.306230  0.324970  0.327580  0.311290  0.300540  0.305400  0.310860  0.301150  0.272720  0.240480  0.232830  0.257900  0.285800  0.287650  0.276860  0.279950  0.288300  0.280070  0.272860  0.295430  0.325830  0.330680  0.330080  0.346550  0.352040  0.334250  0.330720  0.353240  0.363830  0.346870  0.331510  0.327520  0.308440  0.265180  0.227780  0.214410  0.201810  0.169000  0.125070  0.085443  0.055964  0.032921  0.003867 -0.032666 -0.052043 -0.040447 -0.020313 -0.007710  0.011445  0.044596  0.068250  0.063109  0.046970  0.043065  0.043890  0.033096  0.015476  0.001708 -0.011829 -0.026258 -0.038720 -0.055112 -0.071389 -0.075408 -0.074381 -0.085463 -0.100490 -0.101160 -0.100030 -0.116620 -0.140410 -0.146520 -0.132230 -0.119780 -0.121020 -0.125520 -0.123120 -0.119420 -0.126210 -0.141300 -0.151700 -0.147740 -0.133980 -0.119060 -0.093020 -0.052745 -0.028221 -0.037593 -0.052790 -0.051520 -0.055330 -0.072219 -0.079829 -0.074599 -0.063366 -0.040085 -0.010327  0.007711  0.020304  0.038147  0.044096  0.042209  0.050227  0.044823  0.004218 -0.034583 -0.034758 -0.017067 -0.004729 -0.004765 -0.037034 -0.095798 -0.145430 -0.185680 -0.241680 -0.294960 -0.313410 -0.313070 -0.314100 -0.306440 -0.288760 -0.274230 -0.258980 -0.229780 -0.194620 -0.170880 -0.157440 -0.140510 -0.112130 -0.078633 -0.052936 -0.044747 -0.054163 -0.058007 -0.036524 -0.006886  0.002869 -0.005239 -0.007948  0.004453  0.035198  0.074563  0.091515  0.078736  0.062311  0.050013  0.019062 -0.028904 -0.063562 -0.079351 -0.092596 -0.114240 -0.145450 -0.170530 -0.165890 -0.135620 -0.110300 -0.099884 -0.096737 -0.099786 -0.090854 -0.054647 -0.027967 -0.041117 -0.050476 -0.021573  0.002973 -0.002158 -0.000142  0.021233  0.037669  0.047985  0.062737  0.076434  0.091129  0.117490  0.147980  0.175830  0.202350  0.211160  0.188200  0.157300  0.153870  0.177910  0.206530  0.232960  0.263420  0.294260  0.311380  0.308370  0.293910  0.281090  0.278000  0.286700  0.301890  0.310590  0.305550  0.300860  0.309340  0.310930  0.291340  0.281510  0.305700  0.335780  0.348150  0.365350  0.397440  0.420110  0.424980  0.424860  0.424120  0.423990  0.433300  0.450920  0.465770  0.477420  0.491540  0.514220  0.545800  0.567730  0.563240  0.547380  0.538340  0.520500  0.486840  0.471780  0.488400  0.501930  0.496750  0.501600  0.525580  0.530820  0.501070  0.474040  0.472840  0.470780  0.454140  0.447940  0.450030  0.436180  0.424800  0.438010  0.451970  0.449510  0.449420  0.448440  0.423870  0.391120  0.376970  0.381730  0.399880  0.428440  0.454130  0.467710  0.479930  0.494950  0.500500  0.494890  0.492500  0.502940  0.518080  0.523760  0.519380  0.517080  0.523170  0.523260  0.502470  0.470840  0.450930  0.449450  0.450890  0.436180  0.401540  0.365660  0.351610  0.353110  0.351740  0.352760  0.365510  0.379940  0.392480  0.412440  0.425180  0.412820  0.400580  0.413610  0.431170  0.427830  0.412700  0.399930  0.386380  0.371010  0.357180  0.343300  0.329320  0.324030  0.334350  0.349810  0.355620  0.353530  0.352050  0.354600  0.367380  0.391330  0.401970  0.379980  0.347990  0.332020  0.328250  0.328870  0.332670  0.328140  0.312200  0.304100  0.306160  0.298120  0.281110  0.276040  0.286820  0.301210  0.314940  0.329380  0.343260  0.357810  0.372590  0.381380  0.378060  0.364570  0.350970  0.349170  0.361260  0.375800  0.380530  0.376460  0.374660  0.382660  0.398440  0.402780  0.373160  0.317090  0.262240  0.222050  0.182170  0.138170  0.106890  0.085124  0.058493  0.017807 -0.025510 -0.069920 -0.145990 -0.256730 -0.386250 -0.512690 -0.634720 -0.768450 -0.916270 -1.096100 -1.297300 -1.510400 -1.749800 -2.010800 -2.291700 -2.572700 -2.861300 -3.165300 -3.470200 -3.784000 -4.078400 -4.355900 -4.645200 -4.950900 -5.260700 -5.539900 -5.811400 -6.080600 -6.319300 -6.526800 -6.708000 -6.888600 -7.074600 -7.246600 -7.382200 -7.460500 -7.490700 -7.471900 -7.402200 -7.308200 -7.184900 -6.987100 -6.685600 -6.298600 -5.879900 -5.427400 -4.934700 -4.440400 -3.969300 -3.506400 -2.998300 -2.453600 -1.872600 -1.202800 -0.434340  0.394910  1.194000  1.893600  2.448500  2.842800  3.121300  3.302600  3.393700  3.395600  3.330000  3.238400  3.135900  3.053400  3.013700  3.002900  2.976000  2.904000  2.798300  2.673700  2.545500  2.425800  2.316200  2.202600  2.089500  1.967300  1.812000  1.622500  1.431100  1.286200  1.183800  1.100500  1.032500  0.982840 
Shapelet   2   0.352040  0.334250  0.330720  0.353240  0.363830  0.346870  0.331510  0.327520  0.308440  0.265180  0.227780  0.214410  0.201810  0.169000  0.125070  0.085443  0.055964  0.032921  0.003867 -0.032666 -0.052043 -0.040447 -0.020313 -0.007710  0.011445  0.044596  0.068250  0.063109  0.046970  0.043065  0.043890 
Shapelet   3   1.808000  1.819100  1.832500  1.846400  1.864200  1.881300  1.891600  1.905400  1.923900  1.938300  1.954700  1.972600  1.983400  1.994200  2.008900  2.023100  2.040300  2.057000  2.064400  2.069600  2.081300  2.093100  2.101200  2.111100  2.122900  2.134500  2.147800  2.160100  2.168200  2.176800  2.185500  2.189500  2.193300  2.198200  2.203400  2.213900  2.222800  2.222100  2.221800  2.223600  2.220900  2.223400  2.229700  2.228200  2.227500  2.229700  2.224400  2.218700  2.217400  2.212500  2.205000  2.198400  2.189400  2.180000  2.174100  2.165900  2.153200  2.142900  2.131200  2.111500  2.092400  2.076800  2.059100  2.045200  2.034100  2.015100  1.993500  1.974600  1.953300  1.933200  1.914300  1.889600  1.864100  1.841800  1.819500  1.799300  1.775300  1.741300  1.709800  1.684100  1.654800  1.625100  1.599000  1.573400  1.549600  1.525700  1.496800  1.467300  1.440400  1.411800  1.382200  1.355500  1.331200  1.307500  1.282100  1.253700  1.227000  1.204000  1.175800  1.141000  1.112400  1.089500  1.061500  1.032700  1.010300  0.989750  0.967610  0.943930  0.918500  0.894340  0.871100  0.845840  0.821270  0.798120  0.776360  0.758020  0.736930  0.708100  0.680160  0.658490  0.638040  0.617170  0.597950  0.581460  0.566720  0.548810  0.528160  0.511020  0.494460  0.473940  0.455420  0.440830  0.424640  0.409490  0.400970  0.393330  0.378640  0.360290  0.345170  0.332840  0.319120  0.302900  0.288570  0.280170  0.272310  0.259930  0.247420  0.235770  0.223060  0.211480  0.199110  0.185740  0.178780  0.175760  0.167740  0.157990  0.151230  0.143380  0.131990  0.119830  0.111610  0.107940  0.102440  0.094048  0.088621  0.085298  0.081253  0.077651  0.071887  0.063609  0.058202  0.055222  0.051140  0.046744  0.042670  0.038965  0.035276  0.028974  0.020828  0.015694  0.013262  0.008567  0.003452  0.002767  0.002692 -0.001358 -0.006066 -0.009687 -0.014019 -0.016306 -0.014791 -0.014640 -0.016330 -0.014478 -0.013985 -0.021392 -0.028598 -0.032064 -0.039333 -0.047170 -0.050550 -0.054507 -0.057926 -0.057158 -0.056391 -0.058181 -0.062537 -0.067842 -0.069090 -0.068845 -0.072859 -0.076169 -0.074837 -0.074166 -0.076919 -0.081168 -0.085452 -0.089171 -0.093395 -0.097916 -0.099609 -0.098739 -0.098549 -0.100830 -0.106030 -0.110330 -0.112360 -0.119100 -0.127810 -0.129080 -0.129600 -0.134180 -0.135130 -0.135500 -0.140050 -0.143930 -0.149470 -0.157950 -0.162760 -0.167200 -0.176090 -0.182270 -0.182340 -0.182590 -0.186340 -0.190980 -0.194700 -0.198630 -0.203230 -0.206750 -0.207210 -0.205860 -0.206930 -0.211060 -0.214990 -0.219520 -0.227690 -0.235200 -0.236340 -0.235880 -0.239670 -0.242910 -0.242490 -0.244480 -0.250230 -0.254060 -0.256830 -0.262640 -0.266400 -0.265630 -0.268050 -0.272250 -0.272110 -0.273890 -0.278270 -0.278420 -0.279700 -0.284360 -0.285120 -0.284050 -0.284390 -0.284040 -0.286120 -0.290660 -0.291280 -0.289290 -0.290810 -0.295160 -0.297420 -0.295900 -0.291900 -0.287100 -0.284010 -0.284090 -0.285060 -0.283770 -0.279570 -0.274760 -0.271620 -0.267600 -0.259790 -0.252350 -0.248830 -0.245620 -0.240420 -0.236670 -0.236410 -0.235980 -0.230870 -0.222480 -0.215980 
Shapelet   7  -0.361500 -0.401860 -0.482570 -0.585710 -0.679870 -0.765070 -0.827850 -0.868210 -0.881660 -0.854750 -0.760590 -0.617100 -0.401860 -0.164200 -0.038644 -0.061065 -0.271820 -0.679870 -1.182100 -1.617100 -2.020600 -2.585600 -3.182000 -3.751500 -4.312000 -4.989100 -5.715500 -6.316400 -6.755900 -7.024900 -7.190800 -7.329800 -7.437400 -7.455400 -7.388100 -7.334300 -7.338800 -7.361200 -7.361200 -7.267100 -7.137000 -6.926300 -6.675100 


; cmd = /home/grad00/soren885/capstone/ShapeletResearch/Execs/FastShapelet ./Shapelet_Datasets/UCR_CV_DATA/CinC_ECG_torso_TRAIN_CV2 4 21 820 1 2 10 euclidean 0 0 10 ./cv_output/CinC_ECG_torso_CV2/CinC_ECG_torso_CV2_euclidean_unnormed_NOCID_tree.txt ./cv_output/CinC_ECG_torso_CV2/CinC_ECG_torso_CV2_euclidean_unnormed_NOCID_time.txt
; time =>  110.617   5.674  23.351   1.858  77.600 
; command = /home/grad00/soren885/capstone/ShapeletResearch/Execs/Classify ./Shapelet_Datasets/UCR_CV_DATA/CinC_ECG_torso_TRAIN_CV1 4 19 euclidean 0 0 ./cv_output/CinC_ECG_torso_CV2/CinC_ECG_torso_CV2_euclidean_unnormed_NOCID_tree.txt ./cv_output/CinC_ECG_torso_CV2/CinC_ECG_torso_CV2_euclidean_unnormed_NOCID_acc.txt
; accuracy= 31.579   Correct:6 , Wrong: 13


;   == Confusion Matrix ==
;   real |   1    2    3    4 
;   -----+------------------------
;   p  1 |   0    0    0    3 
;   p  2 |   0    1    2    0 
;   p  3 |   2    5    4    1 
;   p  4 |   0    0    0    1 

