;Shapelet Tree 

;random seed:1502300329, rand()=1826242075, rand()=252337915
;command = /home/grad00/soren885/capstone/ShapeletResearch/Execs/FastShapelet ./Shapelet_Datasets/UCR_CV_DATA/CinC_ECG_torso_TRAIN_CV2 4 21 820 1 2 10 manhattan 0 1 10 ./cv_output/CinC_ECG_torso_CV2/CinC_ECG_torso_CV2_manhattan_normed_NOCID_tree.txt ./cv_output/CinC_ECG_torso_CV2/CinC_ECG_torso_CV2_manhattan_normed_NOCID_time.txt 

;Local Class:   0  1  2  3 
;Real  Class:   1  2  3  4 

;Node ID class   obj  pos  len  dist_th 
TreeSize: 8 
NonL  1    --      4   37  739  431.7644 ==>   0   7   6   0  /   3   0   0   5 
NonL  2    --      0  1146  245  30.5388 ==>   0   7   0   0  /   0   0   6   0 
NonL  3    --      3  662  405  221.7869 ==>   0   0   0   5  /   3   0   0   0 
Leaf  4     2    
Leaf  5     3    
Leaf  6     4    
Leaf  7     1    

;Shapelet id   <data>
Shapelet   1   0.729260  0.707170  0.615700  0.580980  0.592280  0.610810  0.635030  0.640130  0.633920  0.660210  0.674710  0.614440  0.546630  0.545020  0.554080  0.529150  0.531320  0.590270  0.639930  0.631450  0.592730  0.565370  0.553710  0.548870  0.561010  0.597580  0.635140  0.642100  0.613160  0.573030  0.553580  0.557950  0.555340  0.543550  0.560810  0.600830  0.614830  0.611200  0.628110  0.641450  0.622760  0.611940  0.634930  0.652900  0.639940  0.608110  0.566930  0.530930  0.520860  0.524780  0.522090  0.530270  0.566490  0.605200  0.613290  0.586040  0.544430  0.522510  0.534830  0.552940  0.553110  0.555740  0.574470  0.586770  0.583950  0.583480  0.582510  0.566280  0.548380  0.550770  0.560260  0.553550  0.545560  0.562350  0.582820  0.573550  0.554360  0.553560  0.551640  0.533490  0.511640  0.472360  0.409760  0.376890  0.395830  0.413380  0.408320  0.416510  0.440150  0.456410  0.478530  0.516110  0.543690  0.554690  0.571350  0.586290  0.566910  0.526640  0.524720  0.576070  0.622090  0.620370  0.603320  0.611130  0.623670  0.604970  0.567600  0.542600  0.527270  0.507530  0.494600  0.496080  0.490620  0.470270  0.460150  0.466980  0.457630  0.420650  0.402770  0.440760  0.496920  0.511070  0.484990  0.465910  0.475920  0.495160  0.490120  0.456020  0.433990  0.450650  0.466780  0.449020  0.438600  0.473300  0.511100  0.501640  0.463020  0.434320  0.417300  0.401620  0.402870  0.433610  0.467950  0.474200  0.461650  0.461860  0.479960  0.495540  0.498530  0.493200  0.477080  0.444650  0.409820  0.397770  0.413260  0.433880  0.433350  0.410990  0.404670  0.447460  0.508560  0.525130  0.500090  0.496010  0.528260  0.541550  0.506230  0.469310  0.474400  0.496030  0.499130  0.494990  0.496610  0.488090  0.467180  0.448640  0.433520  0.430720  0.451530  0.466750  0.450270  0.437080  0.455130  0.473040  0.468590  0.454010  0.434490  0.425760  0.454720  0.492770  0.480680  0.434600  0.422150  0.448750  0.466360  0.462680  0.466300  0.486090  0.495780  0.477710  0.449760  0.437340  0.438290  0.436280  0.434860  0.441120  0.439130  0.419500  0.407910  0.423600  0.448550  0.464280  0.470360  0.465530  0.460910  0.472590  0.473930  0.431100  0.377590  0.364730  0.390610  0.442460  0.512330  0.553610  0.539760  0.524130  0.543780  0.560900  0.554900  0.551690  0.554080  0.552010  0.560930  0.580610  0.587290  0.582750  0.582860  0.582450  0.581590  0.594490  0.613330  0.617890  0.607160  0.589040  0.574630  0.583090  0.607730  0.607980  0.571410  0.528980  0.497630  0.473280  0.467500  0.485920  0.502040  0.497170  0.489350  0.498180  0.516940  0.528780  0.526820  0.513300  0.493510  0.474170  0.463260  0.464190  0.475290  0.496330  0.528210  0.567930  0.604340  0.615850  0.585250  0.527720  0.490140  0.505850  0.552940  0.582080  0.583940  0.583180  0.571600  0.529880  0.496490  0.509600  0.524320  0.492900  0.449990  0.437100  0.437560  0.437430  0.452110  0.472680  0.471210  0.457500  0.466220  0.491740  0.490360  0.452390  0.423280  0.435090  0.461300  0.464580  0.447210  0.423390  0.385640  0.338460  0.321100  0.353050  0.400480  0.432370  0.452310  0.467790  0.484040  0.502540  0.501770  0.475130  0.466720  0.490450  0.489500  0.449660  0.427250  0.436650  0.441710  0.434940  0.420200  0.385400  0.351250  0.355530  0.384330  0.402390  0.415450  0.434730  0.434610  0.403410  0.389870  0.432870  0.488010  0.501180  0.495570  0.500040  0.487650  0.465540  0.489670  0.553540  0.600030  0.613970  0.599170  0.548770  0.497860  0.489300  0.495500  0.478290  0.454570  0.439440  0.421160  0.406710  0.407710  0.403970  0.383430  0.369150  0.381020  0.414460  0.450910  0.467530  0.454710  0.436940  0.446190  0.477670  0.497230  0.481200  0.439130  0.398100  0.375060  0.374950  0.384240  0.380470  0.362340  0.347350  0.333150  0.305780  0.290600  0.300610  0.286070  0.219530  0.142320  0.076040 -0.007233 -0.092758 -0.125980 -0.108070 -0.089167 -0.095089 -0.117620 -0.150510 -0.185200 -0.188770 -0.144470 -0.091622 -0.067835 -0.056103 -0.038289 -0.019474  0.019480  0.083608  0.117640  0.111340  0.132830  0.191160  0.241000  0.298210  0.387630  0.463050  0.509460  0.575240  0.642830  0.654480  0.639280  0.673340  0.758620  0.842990  0.902370  0.944120  0.979590  1.003400  0.995380  0.952920  0.891000  0.808150  0.704790  0.621580  0.590880  0.581380  0.561190  0.554390  0.575470  0.606670  0.644030  0.682950  0.707010  0.738650  0.815580  0.903870  0.946910  0.972100  1.025100  1.083900  1.108500  1.108000  1.110000  1.112500  1.097600  1.057900  1.005000  0.955410  0.917320  0.897420  0.900430  0.926830  0.966340  0.989870  0.991600  1.009500  1.050400  1.049600  0.991570  0.957770  0.964260  0.944420  0.905520  0.907760  0.944080  0.991470  1.072400  1.160300  1.193500  1.198800  1.232600  1.270400  1.262100  1.206600  1.127500  1.052500  1.000700  0.949580  0.883760  0.845210  0.847840  0.836810  0.796240  0.790710  0.845410  0.896840  0.900960  0.881860  0.862800  0.821770  0.748610  0.690520  0.685780  0.724580  0.779930  0.818330  0.813650  0.801880  0.843810  0.900490  0.881950  0.810740  0.778800  0.797950  0.815970  0.810710  0.786870  0.742070  0.674820  0.586730  0.501480  0.466270  0.492880  0.533370  0.549470  0.565070  0.606600  0.651530  0.673260  0.686740  0.718290  0.754150  0.764310  0.757890  0.768830  0.804890  0.839730  0.859520  0.876400  0.895520  0.907400  0.907170  0.891740  0.846800  0.774860  0.715180  0.697460  0.708560  0.727440  0.756120  0.797480  0.834410  0.856140  0.872800  0.884980  0.870100  0.819270  0.762750  0.732030  0.726580  0.729230  0.719080  0.681380  0.626630  0.587540  0.583440  0.601660  0.613860  0.596630  0.554980  0.525290  0.532580  0.561720  0.581440  0.579100  0.557520  0.522590  0.490730  0.485450  0.511990  0.548350  0.572450  0.584220  0.587190  0.577140  0.558630  0.541580  0.523650  0.503690  0.493870  0.495750  0.489520  0.466690  0.444210  0.436200  0.436310  0.441830  0.463910  0.491490  0.493010  0.473520  0.460700  0.442190  0.402110  0.377870  0.395100  0.413770  0.409080  0.414350  0.439060  0.434890  0.385800  0.350230  0.361820  0.378900  0.386770  0.424770  0.467290  0.435670  0.352960  0.312540  0.327070  0.359970  0.410030  0.462480  0.469750  0.426780  0.373100  0.327890  0.294580  0.292410  0.325250  0.352200  0.340160  0.320510  0.331480  0.350050  0.349150  0.353720  0.373860  0.380540  0.378610  0.405680  0.447460  0.449250  0.414890  0.406090  0.448950  0.508270  0.558070  0.616580  0.689020  0.750880  0.793390  0.827580  0.858670  0.873530  0.875000  0.874900  0.860740  0.834760  0.833700  0.893120  0.994450  1.127700  1.325900  1.539900  1.697600  1.831700  2.000700  2.172400  2.320700  2.505900  2.720700  2.901600  3.070900  3.263200  3.443800  3.593400  3.744100  3.865300  3.886700  3.820300  3.733200  3.627100  3.464900  3.280300  3.142400  3.065400  2.961400  2.777300  2.546400  2.282500  1.946600  1.504000  1.031300  0.577500  0.083059 -0.510050 -1.194700 -1.929700 -2.683500 -3.374400 -3.943800 -4.422900 -4.829900 -5.132100 -5.298000 -5.345800 -5.270000 -5.033200 -4.681600 -4.347700 -4.097900 -3.863600 -3.600200 -3.347900 -3.136000 -2.966500 -2.872400 -2.787700 -2.561200 -2.158700 -1.680400 -1.229900 -0.821150 -0.475200 -0.194690  0.059111  0.251590  0.289300  0.095377 -0.271190 -0.704920 -1.164100 -1.579500 -1.864500 -1.994700 -2.033400 -2.017200 -1.952000 -1.931000 -2.003300 
Shapelet   2  -0.766160 -0.765140 -0.765900 -0.766020 -0.764570 -0.766340 -0.766670 -0.764520 -0.763350 -0.772800 -0.789170 -0.801790 -0.817710 -0.833060 -0.838060 -0.837230 -0.845020 -0.864800 -0.879370 -0.889600 -0.905120 -0.922700 -0.933370 -0.932680 -0.932590 -0.933450 -0.924800 -0.908450 -0.899900 -0.917030 -0.946560 -0.973990 -1.003800 -1.025900 -1.024400 -1.007200 -1.004000 -1.005400 -0.981450 -0.950590 -0.935000 -0.929550 -0.930900 -0.951010 -0.984870 -1.002200 -1.002700 -1.003200 -1.006100 -1.003700 -0.989470 -0.973780 -0.959760 -0.950770 -0.957030 -0.971070 -0.983050 -0.995370 -1.022800 -1.051200 -1.047900 -1.019600 -0.989760 -0.969540 -0.957690 -0.952930 -0.957350 -0.958580 -0.950940 -0.936090 -0.918630 -0.908240 -0.906530 -0.908070 -0.892870 -0.859240 -0.837240 -0.835920 -0.834590 -0.818220 -0.812270 -0.836950 -0.860990 -0.856890 -0.839810 -0.838170 -0.838780 -0.814550 -0.784030 -0.768960 -0.760610 -0.745210 -0.728530 -0.716170 -0.691170 -0.650310 -0.607980 -0.573590 -0.550360 -0.543130 -0.559500 -0.575850 -0.561370 -0.527810 -0.505780 -0.504400 -0.505420 -0.497630 -0.481570 -0.462780 -0.455560 -0.456390 -0.454310 -0.455400 -0.468950 -0.480360 -0.457350 -0.405540 -0.365500 -0.350750 -0.334580 -0.303920 -0.282360 -0.270220 -0.250850 -0.242310 -0.256330 -0.267230 -0.264740 -0.273880 -0.289670 -0.281300 -0.259940 -0.246330 -0.233530 -0.219250 -0.215660 -0.217830 -0.205070 -0.182540 -0.171050 -0.171150 -0.170080 -0.167460 -0.175980 -0.191670 -0.198090 -0.193900 -0.182490 -0.160390 -0.130870 -0.109310 -0.099186 -0.086718 -0.069773 -0.055664 -0.043999 -0.028859 -0.011518 -0.002719 -0.003487 -0.001041  0.016427  0.046390  0.070809  0.074395  0.058687  0.044436  0.050127  0.069923  0.086890  0.092844  0.092024  0.090203  0.091574  0.102790  0.122720  0.137940  0.134490  0.115750  0.098118  0.090283  0.090557  0.092351  0.091531  0.090519  0.091937  0.093336  0.086326  0.070138  0.061072  0.069301  0.074054  0.060396  0.061606  0.095522  0.115120  0.098624  0.093857  0.112850  0.104840  0.067309  0.054903  0.075315  0.090534  0.090413  0.091135  0.093765  0.090125  0.088397  0.098647  0.113500  0.125770  0.142610  0.160530  0.159290  0.142340  0.128570  0.113120  0.094704  0.094698  0.111600  0.118850  0.114970  0.106490  0.079748  0.048227  0.047788  0.067095  0.071395  0.066910  0.068528  0.061427  0.044957  0.039592  0.045380  0.057217  0.082951  0.112000  0.120680  0.114320  0.113440  0.116310  0.115550  0.115170 
Shapelet   3  -0.758440 -0.688600 -0.615320 -0.548120 -0.492800 -0.444630 -0.401090 -0.363590 -0.331940 -0.301500 -0.265100 -0.224320 -0.188590 -0.160540 -0.137010 -0.116170 -0.096772 -0.081553 -0.072949 -0.064415 -0.051137 -0.038122 -0.028708 -0.020754 -0.012851 -0.004731  0.003538  0.011468  0.019437  0.027828  0.035837  0.043416  0.052391  0.064441  0.075979  0.081212  0.084656  0.092877  0.099680  0.103200  0.110720  0.118010  0.121570  0.128640  0.136490  0.140060  0.143750  0.147490  0.151860  0.159980  0.166140  0.170220  0.177960  0.184620  0.188500  0.192870  0.193950  0.194620  0.202010  0.209630  0.212580  0.216090  0.220720  0.224830  0.228930  0.230800  0.230020  0.229630  0.232190  0.237090  0.237340  0.231550  0.230800  0.235630  0.234310  0.228300  0.224710  0.221100  0.216380  0.212680  0.210900  0.213530  0.218100  0.218710  0.217540  0.218360  0.218520  0.217340  0.218470  0.222020  0.225870  0.230620  0.235050  0.235890  0.236510  0.240420  0.242920  0.242060  0.241730  0.242220  0.242110  0.241970  0.242000  0.242120  0.242100  0.241870  0.242130  0.242200  0.241710  0.242200  0.242310  0.241450  0.242410  0.242460  0.240660  0.243820  0.248190  0.247410  0.249550  0.254270  0.253570  0.256270  0.266440  0.271770  0.271180  0.272420  0.275930  0.280230  0.284560  0.288220  0.292360  0.296630  0.300350  0.304630  0.308640  0.312400  0.317140  0.320440  0.324120  0.332270  0.339080  0.342730  0.350030  0.357540  0.361270  0.365550  0.367760  0.367650  0.373650  0.382760  0.385960  0.385370  0.385610  0.386040  0.385820  0.384220  0.379990  0.377830  0.382550  0.385940  0.381530  0.378190  0.380170  0.380390  0.377230  0.373180  0.368690  0.366430  0.368420  0.372530  0.375000  0.372690  0.368290  0.367370  0.367170  0.362790  0.359620  0.363290  0.367630  0.367420  0.368350  0.373340  0.377820  0.380060  0.380060  0.378970  0.379990  0.380090  0.381190  0.391240  0.398000  0.392790  0.392720  0.398140  0.397420  0.399400  0.404080  0.403120  0.407050  0.417100  0.421040  0.423080  0.428790  0.432730  0.435640  0.440810  0.444860  0.447550  0.453500  0.461970  0.469710  0.478200  0.486600  0.491250  0.494300  0.499030  0.505790  0.514980  0.523290  0.529770  0.540560  0.553570  0.561570  0.568560  0.577900  0.585630  0.592700  0.602260  0.613630  0.626300  0.638560  0.646550  0.652590  0.663150  0.675470  0.684040  0.693080  0.705290  0.717060  0.730430  0.747010  0.760990  0.771500  0.784060  0.797570  0.806780  0.815130  0.829450  0.845940  0.857810  0.868330  0.881650  0.894260  0.905070  0.917880  0.930820  0.941390  0.955320  0.973390  0.989350  1.002500  1.015600  1.030500  1.048100  1.063900  1.075100  1.088600  1.107200  1.123600  1.133400  1.141500  1.153300  1.169400  1.185000  1.196800  1.210300  1.228800  1.245100  1.258700  1.278300  1.299300  1.312000  1.323600  1.341900  1.359100  1.370900  1.385000  1.403800  1.422500  1.439800  1.458200  1.477700  1.494100  1.508600  1.525500  1.542500  1.557500  1.573800  1.591000  1.606300  1.622200  1.639400  1.655000  1.671000  1.687400  1.699100  1.711100  1.731900  1.752600  1.764800  1.778100  1.795400  1.808000  1.819100  1.832500  1.846400  1.864200  1.881300  1.891600  1.905400  1.923900  1.938300  1.954700  1.972600  1.983400  1.994200  2.008900  2.023100  2.040300  2.057000  2.064400  2.069600  2.081300  2.093100  2.101200  2.111100  2.122900  2.134500  2.147800  2.160100  2.168200  2.176800  2.185500  2.189500  2.193300  2.198200  2.203400  2.213900  2.222800  2.222100  2.221800  2.223600  2.220900  2.223400  2.229700  2.228200  2.227500  2.229700  2.224400  2.218700  2.217400  2.212500  2.205000  2.198400  2.189400  2.180000  2.174100  2.165900  2.153200  2.142900  2.131200  2.111500  2.092400  2.076800  2.059100  2.045200  2.034100  2.015100  1.993500  1.974600  1.953300  1.933200  1.914300  1.889600  1.864100  1.841800  1.819500  1.799300  1.775300  1.741300  1.709800  1.684100  1.654800  1.625100  1.599000  1.573400  1.549600  1.525700  1.496800  1.467300  1.440400  1.411800  1.382200  1.355500  1.331200 


; cmd = /home/grad00/soren885/capstone/ShapeletResearch/Execs/FastShapelet ./Shapelet_Datasets/UCR_CV_DATA/CinC_ECG_torso_TRAIN_CV2 4 21 820 1 2 10 manhattan 0 1 10 ./cv_output/CinC_ECG_torso_CV2/CinC_ECG_torso_CV2_manhattan_normed_NOCID_tree.txt ./cv_output/CinC_ECG_torso_CV2/CinC_ECG_torso_CV2_manhattan_normed_NOCID_time.txt
; time =>  589.407   7.029  33.827   2.681 542.523 
; command = /home/grad00/soren885/capstone/ShapeletResearch/Execs/Classify ./Shapelet_Datasets/UCR_CV_DATA/CinC_ECG_torso_TRAIN_CV1 4 19 manhattan 0 1 ./cv_output/CinC_ECG_torso_CV2/CinC_ECG_torso_CV2_manhattan_normed_NOCID_tree.txt ./cv_output/CinC_ECG_torso_CV2/CinC_ECG_torso_CV2_manhattan_normed_NOCID_acc.txt
; accuracy= 42.105   Correct:8 , Wrong: 11


;   == Confusion Matrix ==
;   real |   1    2    3    4 
;   -----+------------------------
;   p  1 |   2    0    0    2 
;   p  2 |   0    0    1    0 
;   p  3 |   0    5    3    0 
;   p  4 |   0    1    2    3 

