;Shapelet Tree 

;random seed:1502361389, rand()=1763707749, rand()=844885091
;command = /home/grad00/soren885/capstone/ShapeletResearch/Execs/FastShapelet ./Shapelet_Datasets/UCR_CV_DATA/CinC_ECG_torso_TRAIN_CV2 4 21 820 1 2 10 manhattan 1 0 10 ./cv_output/CinC_ECG_torso_CV2/CinC_ECG_torso_CV2_manhattan_unnormed_CID_tree.txt ./cv_output/CinC_ECG_torso_CV2/CinC_ECG_torso_CV2_manhattan_unnormed_CID_time.txt 

;Local Class:   0  1  2  3 
;Real  Class:   1  2  3  4 

;Node ID class   obj  pos  len  dist_th 
TreeSize: 12 
NonL  1    --     11   50  791  783.5183 ==>   0   7   6   0  /   3   0   0   5 
NonL  2    --      1   70  715  499.1859 ==>   0   6   0   0  /   0   1   6   0 
NonL  3    --      1  673  809  671.1727 ==>   3   0   0   0  /   0   0   0   5 
Leaf  4     2    
NonL  5    --      0  402  567  124.1674 ==>   0   1   0   0  /   0   0   6   0 
Leaf  6     1    
Leaf  7     4    
Leaf 10     2    
Leaf 11     3    

;Shapelet id   <data>
Shapelet   1   0.165130  0.144340  0.124580  0.129730  0.148530  0.150880  0.141560  0.148830  0.166950  0.171540  0.170770  0.172140  0.166830  0.172560  0.191130  0.193120  0.195970  0.214900  0.212280  0.191760  0.178000  0.150260  0.120510  0.120080  0.125940  0.122810  0.123240  0.121320  0.125520  0.156810  0.191670  0.191320  0.159520  0.122840  0.096165  0.093274  0.121060  0.150380  0.150930  0.140390  0.151030  0.183510  0.212530  0.216560  0.200110  0.182540  0.167300  0.150200  0.148820  0.178450  0.212610  0.220840  0.217780  0.219560  0.202420  0.161760  0.143390  0.168270  0.199780  0.214620  0.228940  0.244050  0.243640  0.237760  0.243620  0.244710  0.227830  0.216910  0.218120  0.215280  0.221080  0.238160  0.250370  0.272170  0.290110  0.273820  0.267460  0.287080  0.279210  0.264340  0.283410  0.296430  0.284720  0.269620  0.242370  0.211100  0.212910  0.236970  0.238510  0.220210  0.221910  0.251910  0.284260  0.296460  0.282720  0.265770  0.274500  0.293120  0.291010  0.283400  0.292890  0.292710  0.261250  0.238680  0.259050  0.287580  0.284240  0.266570  0.271470  0.298190  0.312950  0.300600  0.285240  0.287480  0.293260  0.283650  0.266930  0.262180  0.266720  0.265860  0.262300  0.269370  0.286690  0.294160  0.284790  0.286670  0.306460  0.311840  0.311150  0.329200  0.333880  0.314430  0.309530  0.311110  0.291520  0.279020  0.300490  0.333250  0.354280  0.359460  0.339570  0.303820  0.282610  0.267300  0.243980  0.249180  0.285860  0.307620  0.317090  0.334870  0.341720  0.329650  0.313560  0.306210  0.323050  0.357620  0.380730  0.380660  0.361400  0.340000  0.336860  0.336550  0.331470  0.342660  0.337680  0.298420  0.295780  0.334730  0.354760  0.364470  0.360660  0.335270  0.350690  0.383380  0.357120  0.327800  0.336050  0.325260  0.305680  0.312330  0.316700  0.306280  0.289100  0.269040  0.268350  0.288780  0.306650  0.315780  0.312530  0.307100  0.323030  0.336190  0.320000  0.313120  0.336620  0.356700  0.360510  0.359840  0.358310  0.365310  0.384030  0.390700  0.368340  0.335210  0.315040  0.315300  0.337360  0.360200  0.347600  0.310980  0.290980  0.287880  0.289130  0.301930  0.328690  0.361700  0.382310  0.380980  0.384220  0.390380  0.364530  0.335170  0.335930  0.328760  0.312030  0.324900  0.349350  0.360420  0.362790  0.350730  0.335360  0.334990  0.335590  0.336960  0.353520  0.360220  0.332080  0.296170  0.286090  0.288580  0.273980  0.255540  0.268530  0.302940  0.318190  0.311490  0.310140  0.315530  0.311520  0.308890  0.322860  0.337680  0.350880  0.381220  0.409680  0.410890  0.398470  0.380400  0.362230  0.360720  0.358070  0.339800  0.340220  0.363220  0.365810  0.344960  0.336570  0.351610  0.379350  0.412800  0.432240  0.414270  0.377370  0.359530  0.367260  0.387560  0.404700  0.407840  0.407340  0.407980  0.404520  0.408800  0.411050  0.391950  0.384940  0.403710  0.402420  0.378380  0.362580  0.354800  0.364490  0.398360  0.417260  0.402040  0.384920  0.383920  0.381730  0.365470  0.345110  0.334860  0.335330  0.337420  0.335280  0.334580  0.346040  0.363250  0.362860  0.351830  0.367020  0.401280  0.413410  0.403750  0.388110  0.367660  0.359630  0.361450  0.346320  0.337230  0.371450  0.426330  0.460890  0.459740  0.421750  0.368980  0.338320  0.335320  0.335460  0.334780  0.347730  0.362940  0.361260  0.357010  0.360080  0.342570  0.310820  0.322900  0.375120  0.404540  0.407150  0.407790  0.397180  0.376860  0.361650  0.355150  0.364980  0.381920  0.384120  0.386070  0.404640  0.404950  0.370120  0.357270  0.381830  0.374290  0.338710  0.343710  0.364730  0.360560  0.367860  0.390670  0.386620  0.356090  0.326500  0.312960  0.313650  0.308680  0.290860  0.283150  0.293390  0.291070  0.261930  0.229720  0.198150  0.160170  0.146650  0.168180  0.179220  0.161690  0.147280  0.147910  0.142870  0.124770  0.116250  0.131800  0.146710  0.137200  0.110730  0.078043  0.063644  0.093147  0.123050  0.099403  0.064804  0.074288  0.097678  0.095287  0.076956  0.059112  0.051366  0.073906  0.124680  0.154140  0.125400  0.071356  0.046011  0.051891  0.056434  0.046149  0.029055  0.013448 -0.004984 -0.041451 -0.080999 -0.089567 -0.089606 -0.107260 -0.113180 -0.113350 -0.131140 -0.136300 -0.137080 -0.156970 -0.153960 -0.137110 -0.152420 -0.158780 -0.136920 -0.132490 -0.139220 -0.137070 -0.137180 -0.134240 -0.137470 -0.167740 -0.193920 -0.183770 -0.163670 -0.160330 -0.160640 -0.157330 -0.171140 -0.209900 -0.245810 -0.262300 -0.280150 -0.299050 -0.304730 -0.328550 -0.366920 -0.370910 -0.375010 -0.399030 -0.377570 -0.350180 -0.382760 -0.398040 -0.372090 -0.369560 -0.373860 -0.374440 -0.392580 -0.391880 -0.372510 -0.371670 -0.371770 -0.375130 -0.406880 -0.429650 -0.419760 -0.428570 -0.471300 -0.492170 -0.488160 -0.504230 -0.514940 -0.495910 -0.497270 -0.516690 -0.502360 -0.481520 -0.494920 -0.514040 -0.510200 -0.488360 -0.456920 -0.423420 -0.393230 -0.362710 -0.322630 -0.271180 -0.222070 -0.185990 -0.156040 -0.124910 -0.087744 -0.032103  0.033788  0.078511  0.103860  0.134970  0.170270  0.198400  0.214270  0.230290  0.275410  0.327040  0.344980  0.366240  0.403170  0.393670  0.354180  0.353230  0.373600  0.386490  0.417090  0.460680  0.479270  0.477240  0.486900  0.504620  0.504630  0.496340  0.505230  0.522380  0.527370  0.524980  0.525160  0.524780  0.526900  0.543320  0.558040  0.543190  0.524230  0.544600  0.578770  0.578060  0.555910  0.549940  0.566600  0.589510  0.595260  0.578190  0.557660  0.547580  0.548490  0.544200  0.516470  0.498910  0.525990  0.552960  0.550270  0.549330  0.546150  0.528290  0.523330  0.523700  0.505840  0.494850  0.506250  0.522230  0.538160  0.552120  0.551340  0.535900  0.522600  0.524040  0.528670  0.522740  0.522930  0.541140  0.547760  0.528990  0.518780  0.529150  0.528080  0.509250  0.501080  0.502630  0.489440  0.475950  0.495620  0.534830  0.549340  0.529650  0.506800  0.501340  0.501980  0.500280  0.503180  0.503030  0.488200  0.474820  0.477220  0.480770  0.475720  0.476800  0.491930  0.504750  0.502610  0.498620  0.504300  0.503200  0.485690  0.478560  0.499020  0.512800  0.487770  0.455910  0.461490  0.488420  0.501490  0.501830  0.501740  0.501860  0.501540  0.501970  0.502110  0.491790  0.466890  0.454160  0.469380  0.477980  0.456560  0.433920  0.431430  0.431300  0.417840  0.398880  0.384270  0.369890  0.350960  0.336610  0.333710  0.340070  0.358760  0.379690  0.382170  0.383090  0.400770  0.405190  0.384320  0.365500  0.356370  0.359530  0.376710  0.385170  0.383530  0.385650  0.376830  0.360020  0.357640  0.360300  0.359860  0.362710  0.348990  0.312570  0.299790  0.332220  0.359910  0.347380  0.329020  0.336400  0.352450  0.369820  0.408110  0.459120  0.490650  0.502120  0.516820  0.531260  0.525020  0.506580  0.502820  0.526920  0.573160  0.620940  0.644100  0.631280  0.614350  0.646870  0.715340  0.755650  0.762080  0.742710  0.661300  0.542260  0.458190  0.395570  0.305350  0.195790  0.085954 -0.027862 -0.163200 -0.325360 -0.480080 -0.617250 -0.775730 -0.958270 -1.155500 -1.391300 -1.652800 -1.916200 -2.199100 -2.483600 -2.734500 -2.987100 -3.267600 -3.537900 -3.783400 -4.020900 -4.242700 -4.446500 -4.659900 -4.882800 -5.077200 -5.246500 -5.444200 -5.681400 -5.917300 -6.137200 -6.349000 -6.522200 -6.622700 -6.658400 -6.637000 -6.560800 -6.440700 -6.254500 -5.987400 -5.688600 -5.387800 -5.071200 -4.756600 -4.466700 -4.184100 -3.888800 -3.585800 -3.298600 -3.046700 -2.815200 -2.578800 -2.347200 -2.129900 -1.885200 -1.558900 -1.136800 -0.647900 -0.138880  0.366270  0.871930  1.360800  1.791900  2.155100  2.475500  2.759000  2.981500  3.148200  3.307000  3.468100  3.577400  3.601200  3.567500  3.516000  3.477200  3.476200  3.507400  3.534300  3.534000  3.511300  3.470700  3.408100  3.316100  3.186400  3.041500  2.928500  2.845900  2.751500  2.640200  2.530800  2.420900  2.306700  2.200700  2.107600  2.008900  1.882100  1.738000  1.620500  1.547600  1.486000  1.417700  1.361700 
Shapelet   2   0.543550  0.560810  0.600830  0.614830  0.611200  0.628110  0.641450  0.622760  0.611940  0.634930  0.652900  0.639940  0.608110  0.566930  0.530930  0.520860  0.524780  0.522090  0.530270  0.566490  0.605200  0.613290  0.586040  0.544430  0.522510  0.534830  0.552940  0.553110  0.555740  0.574470  0.586770  0.583950  0.583480  0.582510  0.566280  0.548380  0.550770  0.560260  0.553550  0.545560  0.562350  0.582820  0.573550  0.554360  0.553560  0.551640  0.533490  0.511640  0.472360  0.409760  0.376890  0.395830  0.413380  0.408320  0.416510  0.440150  0.456410  0.478530  0.516110  0.543690  0.554690  0.571350  0.586290  0.566910  0.526640  0.524720  0.576070  0.622090  0.620370  0.603320  0.611130  0.623670  0.604970  0.567600  0.542600  0.527270  0.507530  0.494600  0.496080  0.490620  0.470270  0.460150  0.466980  0.457630  0.420650  0.402770  0.440760  0.496920  0.511070  0.484990  0.465910  0.475920  0.495160  0.490120  0.456020  0.433990  0.450650  0.466780  0.449020  0.438600  0.473300  0.511100  0.501640  0.463020  0.434320  0.417300  0.401620  0.402870  0.433610  0.467950  0.474200  0.461650  0.461860  0.479960  0.495540  0.498530  0.493200  0.477080  0.444650  0.409820  0.397770  0.413260  0.433880  0.433350  0.410990  0.404670  0.447460  0.508560  0.525130  0.500090  0.496010  0.528260  0.541550  0.506230  0.469310  0.474400  0.496030  0.499130  0.494990  0.496610  0.488090  0.467180  0.448640  0.433520  0.430720  0.451530  0.466750  0.450270  0.437080  0.455130  0.473040  0.468590  0.454010  0.434490  0.425760  0.454720  0.492770  0.480680  0.434600  0.422150  0.448750  0.466360  0.462680  0.466300  0.486090  0.495780  0.477710  0.449760  0.437340  0.438290  0.436280  0.434860  0.441120  0.439130  0.419500  0.407910  0.423600  0.448550  0.464280  0.470360  0.465530  0.460910  0.472590  0.473930  0.431100  0.377590  0.364730  0.390610  0.442460  0.512330  0.553610  0.539760  0.524130  0.543780  0.560900  0.554900  0.551690  0.554080  0.552010  0.560930  0.580610  0.587290  0.582750  0.582860  0.582450  0.581590  0.594490  0.613330  0.617890  0.607160  0.589040  0.574630  0.583090  0.607730  0.607980  0.571410  0.528980  0.497630  0.473280  0.467500  0.485920  0.502040  0.497170  0.489350  0.498180  0.516940  0.528780  0.526820  0.513300  0.493510  0.474170  0.463260  0.464190  0.475290  0.496330  0.528210  0.567930  0.604340  0.615850  0.585250  0.527720  0.490140  0.505850  0.552940  0.582080  0.583940  0.583180  0.571600  0.529880  0.496490  0.509600  0.524320  0.492900  0.449990  0.437100  0.437560  0.437430  0.452110  0.472680  0.471210  0.457500  0.466220  0.491740  0.490360  0.452390  0.423280  0.435090  0.461300  0.464580  0.447210  0.423390  0.385640  0.338460  0.321100  0.353050  0.400480  0.432370  0.452310  0.467790  0.484040  0.502540  0.501770  0.475130  0.466720  0.490450  0.489500  0.449660  0.427250  0.436650  0.441710  0.434940  0.420200  0.385400  0.351250  0.355530  0.384330  0.402390  0.415450  0.434730  0.434610  0.403410  0.389870  0.432870  0.488010  0.501180  0.495570  0.500040  0.487650  0.465540  0.489670  0.553540  0.600030  0.613970  0.599170  0.548770  0.497860  0.489300  0.495500  0.478290  0.454570  0.439440  0.421160  0.406710  0.407710  0.403970  0.383430  0.369150  0.381020  0.414460  0.450910  0.467530  0.454710  0.436940  0.446190  0.477670  0.497230  0.481200  0.439130  0.398100  0.375060  0.374950  0.384240  0.380470  0.362340  0.347350  0.333150  0.305780  0.290600  0.300610  0.286070  0.219530  0.142320  0.076040 -0.007233 -0.092758 -0.125980 -0.108070 -0.089167 -0.095089 -0.117620 -0.150510 -0.185200 -0.188770 -0.144470 -0.091622 -0.067835 -0.056103 -0.038289 -0.019474  0.019480  0.083608  0.117640  0.111340  0.132830  0.191160  0.241000  0.298210  0.387630  0.463050  0.509460  0.575240  0.642830  0.654480  0.639280  0.673340  0.758620  0.842990  0.902370  0.944120  0.979590  1.003400  0.995380  0.952920  0.891000  0.808150  0.704790  0.621580  0.590880  0.581380  0.561190  0.554390  0.575470  0.606670  0.644030  0.682950  0.707010  0.738650  0.815580  0.903870  0.946910  0.972100  1.025100  1.083900  1.108500  1.108000  1.110000  1.112500  1.097600  1.057900  1.005000  0.955410  0.917320  0.897420  0.900430  0.926830  0.966340  0.989870  0.991600  1.009500  1.050400  1.049600  0.991570  0.957770  0.964260  0.944420  0.905520  0.907760  0.944080  0.991470  1.072400  1.160300  1.193500  1.198800  1.232600  1.270400  1.262100  1.206600  1.127500  1.052500  1.000700  0.949580  0.883760  0.845210  0.847840  0.836810  0.796240  0.790710  0.845410  0.896840  0.900960  0.881860  0.862800  0.821770  0.748610  0.690520  0.685780  0.724580  0.779930  0.818330  0.813650  0.801880  0.843810  0.900490  0.881950  0.810740  0.778800  0.797950  0.815970  0.810710  0.786870  0.742070  0.674820  0.586730  0.501480  0.466270  0.492880  0.533370  0.549470  0.565070  0.606600  0.651530  0.673260  0.686740  0.718290  0.754150  0.764310  0.757890  0.768830  0.804890  0.839730  0.859520  0.876400  0.895520  0.907400  0.907170  0.891740  0.846800  0.774860  0.715180  0.697460  0.708560  0.727440  0.756120  0.797480  0.834410  0.856140  0.872800  0.884980  0.870100  0.819270  0.762750  0.732030  0.726580  0.729230  0.719080  0.681380  0.626630  0.587540  0.583440  0.601660  0.613860  0.596630  0.554980  0.525290  0.532580  0.561720  0.581440  0.579100  0.557520  0.522590  0.490730  0.485450  0.511990  0.548350  0.572450  0.584220  0.587190  0.577140  0.558630  0.541580  0.523650  0.503690  0.493870  0.495750  0.489520  0.466690  0.444210  0.436200  0.436310  0.441830  0.463910  0.491490  0.493010  0.473520  0.460700  0.442190  0.402110  0.377870  0.395100  0.413770  0.409080  0.414350  0.439060  0.434890  0.385800  0.350230  0.361820  0.378900  0.386770  0.424770  0.467290  0.435670  0.352960  0.312540  0.327070  0.359970  0.410030  0.462480  0.469750  0.426780  0.373100  0.327890  0.294580  0.292410  0.325250  0.352200  0.340160  0.320510  0.331480  0.350050  0.349150  0.353720  0.373860  0.380540  0.378610  0.405680  0.447460  0.449250  0.414890  0.406090  0.448950  0.508270  0.558070  0.616580  0.689020  0.750880  0.793390  0.827580  0.858670  0.873530  0.875000  0.874900  0.860740  0.834760  0.833700  0.893120  0.994450  1.127700  1.325900  1.539900  1.697600  1.831700  2.000700  2.172400  2.320700  2.505900  2.720700  2.901600  3.070900  3.263200  3.443800  3.593400  3.744100  3.865300  3.886700  3.820300  3.733200  3.627100  3.464900  3.280300  3.142400  3.065400  2.961400  2.777300  2.546400  2.282500  1.946600  1.504000  1.031300  0.577500  0.083059 -0.510050 -1.194700 -1.929700 -2.683500 -3.374400 -3.943800 -4.422900 -4.829900 -5.132100 -5.298000 -5.345800 -5.270000 -5.033200 -4.681600 -4.347700 -4.097900 -3.863600 -3.600200 -3.347900 -3.136000 -2.966500 -2.872400 -2.787700 -2.561200 -2.158700 -1.680400 -1.229900 -0.821150 -0.475200 -0.194690  0.059111  0.251590  0.289300  0.095377 -0.271190 -0.704920 -1.164100 -1.579500 -1.864500 -1.994700 -2.033400 -2.017200 -1.952000 -1.931000 -2.003300 -2.093400 -2.106200 -2.072500 -2.080500 -2.105600 -2.084800 -2.046700 -2.068400 -2.146000 
Shapelet   3  -1.383200 -1.515300 -1.383200 -1.052800 -0.491250 -0.061815  0.235490  0.532790  0.764020  1.292600  2.151400  2.944200  3.439700  3.737000  3.770100  3.637900  3.439700  3.142400  2.812100  2.349600  1.722000  1.259500  1.028300  0.830090  0.764020  0.664920  0.499760  0.334590  0.235490  0.202450  0.268520  0.268520  0.202450  0.169420  0.169420  0.169420  0.202450  0.202450  0.268520  0.301550  0.334590  0.268520  0.136390  0.037286  0.070320  0.103350  0.136390  0.103350  0.070320  0.037286 -0.028781 -0.061815  0.070320  0.103350  0.070320  0.004253  0.070320  0.169420  0.202450  0.202450  0.169420  0.070320  0.037286  0.070320  0.169420  0.103350  0.037286 -0.028781 -0.094848 -0.061815  0.004253  0.004253 -0.061815 -0.094848 -0.094848 -0.094848 -0.094848 -0.094848 -0.127880 -0.193950 -0.127880 -0.061815 -0.061815 -0.160920 -0.193950 -0.127880 -0.127880 -0.193950 -0.293050 -0.226980 -0.193950 -0.226980 -0.293050 -0.326080 -0.293050 -0.260020 -0.094848  0.070320  0.103350  0.037286 -0.028781 -0.094848 -0.127880 -0.193950 -0.226980 -0.226980 -0.260020 -0.260020 -0.260020 -0.293050 -0.392150 -0.326080 -0.260020 -0.226980 -0.127880 -0.094848 -0.094848 -0.061815 -0.160920 -0.226980 -0.260020 -0.260020 -0.160920 -0.193950 -0.326080 -0.359120 -0.359120 -0.392150 -0.491250 -0.458220 -0.425180 -0.392150 -0.293050 -0.260020 -0.226980 -0.226980 -0.260020 -0.260020 -0.293050 -0.392150 -0.392150 -0.425180 -0.491250 -0.491250 -0.392150 -0.293050 -0.260020 -0.359120 -0.458220 -0.425180 -0.326080 -0.326080 -0.458220 -0.557320 -0.491250 -0.392150 -0.392150 -0.359120 -0.425180 -0.458220 -0.491250 -0.557320 -0.491250 -0.491250 -0.524280 -0.458220 -0.425180 -0.491250 -0.491250 -0.458220 -0.557320 -0.557320 -0.590350 -0.590350 -0.623390 -0.623390 -0.590350 -0.524280 -0.524280 -0.590350 -0.623390 -0.590350 -0.557320 -0.590350 -0.623390 -0.689450 -0.788550 -0.821590 -0.689450 -0.656420 -0.722490 -0.821590 -0.854620 -0.854620 -0.854620 -0.920690 -0.887650 -0.788550 -0.755520 -0.788550 -0.788550 -0.788550 -0.755520 -0.854620 -0.854620 -0.854620 -0.854620 -0.953720 -1.085900 -1.151900 -1.151900 -1.052800 -1.019800 -1.019800 -1.052800 -1.118900 -1.151900 -1.118900 -1.151900 -1.185000 -1.218000 -1.251000 -1.251000 -1.218000 -1.317100 -1.416200 -1.548300 -1.647400 -1.614400 -1.515300 -1.482300 -1.482300 -1.515300 -1.680500 -1.713500 -1.746500 -1.812600 -1.812600 -1.878700 -1.911700 -1.911700 -1.845600 -1.878700 -2.010800 -2.109900 -2.142900 -2.176000 -2.176000 -2.142900 -2.109900 -2.142900 -2.242000 -2.407200 -2.473300 -2.473300 -2.473300 -2.407200 -2.341100 -2.407200 -2.572400 -2.671500 -2.704500 -2.671500 -2.737500 -2.770600 -2.869700 -2.968800 -3.067900 -3.100900 -3.067900 -3.034800 -3.034800 -3.067900 -3.067900 -3.200000 -3.233000 -3.266100 -3.200000 -3.233000 -3.332100 -3.299100 -3.233000 -3.233000 -3.332100 -3.398200 -3.497300 -3.530300 -3.563400 -3.497300 -3.431200 -3.464300 -3.431200 -3.431200 -3.365200 -3.299100 -3.299100 -3.200000 -3.133900 -3.167000 -3.133900 -3.034800 -2.869700 -2.704500 -2.605400 -2.572400 -2.506300 -2.539300 -2.572400 -2.539300 -2.407200 -2.275100 -2.109900 -2.043800 -2.010800 -2.043800 -2.010800 -1.878700 -1.647400 -1.515300 -1.449200 -1.383200 -1.350100 -1.317100 -1.185000 -1.118900 -1.118900 -1.085900 -1.085900 -1.052800 -0.953720 -0.887650 -0.821590 -0.821590 -0.755520 -0.590350 -0.458220 -0.425180 -0.359120 -0.326080 -0.392150 -0.326080 -0.260020 -0.127880 -0.094848 -0.028781 -0.028781 -0.028781 -0.028781 -0.028781 -0.028781  0.037286  0.202450  0.301550  0.268520  0.202450  0.202450  0.235490  0.235490  0.268520  0.235490  0.202450  0.169420  0.169420  0.235490  0.301550  0.301550  0.235490  0.103350  0.103350  0.235490  0.400660  0.499760  0.433690  0.301550  0.169420  0.268520  0.334590  0.400660  0.466720  0.499760  0.532790  0.466720  0.433690  0.499760  0.565820  0.664920  0.598860  0.466720  0.334590  0.367620  0.499760  0.565820  0.532790  0.499760  0.466720  0.433690  0.433690  0.499760  0.532790  0.565820  0.466720  0.466720  0.598860  0.664920  0.598860  0.532790  0.499760  0.433690  0.466720  0.532790  0.565820  0.565820  0.499760  0.367620  0.235490  0.334590  0.499760  0.532790  0.532790  0.565820  0.598860  0.598860  0.565820  0.565820  0.565820  0.532790  0.532790  0.466720  0.466720  0.499760  0.532790  0.532790  0.499760  0.499760  0.532790  0.598860  0.598860  0.565820  0.565820  0.499760  0.400660  0.433690  0.466720  0.532790  0.532790  0.565820  0.598860  0.532790  0.532790  0.532790  0.565820  0.565820  0.499760  0.466720  0.466720  0.466720  0.466720  0.532790  0.532790  0.499760  0.499760  0.499760  0.532790  0.598860  0.664920  0.598860  0.466720  0.433690  0.565820  0.565820  0.532790  0.532790  0.466720  0.400660  0.466720  0.532790  0.631890  0.730990  0.730990  0.697960  0.631890  0.598860  0.631890  0.598860  0.499760  0.466720  0.433690  0.334590  0.433690  0.532790  0.565820  0.532790  0.499760  0.400660  0.367620  0.400660  0.466720  0.532790  0.664920  0.664920  0.565820  0.532790  0.565820  0.631890  0.565820  0.532790  0.433690  0.367620  0.367620  0.367620  0.367620  0.367620  0.400660  0.367620  0.466720  0.532790  0.598860  0.664920  0.565820  0.532790  0.565820  0.466720  0.400660  0.433690  0.532790  0.532790  0.466720  0.367620  0.433690  0.532790  0.631890  0.664920  0.532790  0.433690  0.367620  0.334590  0.334590  0.400660  0.433690  0.433690  0.400660  0.433690  0.433690  0.367620  0.367620  0.301550  0.334590  0.367620  0.400660  0.499760  0.532790  0.400660  0.235490  0.235490  0.235490  0.301550  0.466720  0.565820  0.565820  0.499760  0.499760  0.433690  0.499760  0.499760  0.433690  0.400660  0.400660  0.301550  0.235490  0.268520  0.433690  0.532790  0.466720  0.433690  0.400660  0.400660  0.433690  0.466720  0.433690  0.367620  0.301550  0.301550  0.301550  0.400660  0.433690  0.367620  0.367620  0.400660  0.400660  0.433690  0.433690  0.466720  0.367620  0.301550  0.400660  0.466720  0.466720  0.499760  0.499760  0.565820  0.532790  0.499760  0.499760  0.466720  0.466720  0.433690  0.400660  0.367620  0.400660  0.367620  0.301550  0.334590  0.334590  0.400660  0.499760  0.499760  0.499760  0.565820  0.598860  0.532790  0.433690  0.400660  0.433690  0.466720  0.499760  0.466720  0.400660  0.334590  0.301550  0.301550  0.400660  0.400660  0.367620  0.367620  0.433690  0.532790  0.697960  0.797060  0.664920  0.532790  0.532790  0.532790  0.532790  0.532790  0.466720  0.433690  0.400660  0.400660  0.367620  0.301550  0.301550  0.400660  0.367620  0.301550  0.301550  0.367620  0.532790  0.598860  0.565820  0.598860  0.598860  0.565820  0.499760  0.499760  0.400660  0.334590  0.334590  0.367620  0.433690  0.499760  0.499760  0.466720  0.433690  0.367620  0.334590  0.334590  0.499760  0.631890  0.565820  0.400660  0.301550  0.367620  0.532790  0.565820  0.565820  0.532790  0.499760  0.400660  0.400660  0.433690  0.433690  0.466720  0.433690  0.367620  0.301550  0.301550  0.301550  0.367620  0.367620  0.400660  0.433690  0.367620  0.334590  0.301550  0.334590  0.367620  0.334590  0.334590  0.433690  0.532790  0.532790  0.400660  0.334590  0.301550  0.301550  0.268520  0.334590  0.367620  0.466720  0.499760  0.532790  0.565820  0.565820  0.532790  0.565820  0.532790  0.367620  0.301550  0.268520  0.301550  0.235490  0.235490  0.268520  0.301550  0.367620  0.400660  0.466720  0.532790  0.433690  0.400660  0.400660  0.466720  0.499760  0.466720  0.400660  0.367620  0.301550  0.235490  0.202450  0.235490  0.235490  0.235490  0.235490  0.301550  0.301550  0.334590  0.334590  0.367620  0.433690  0.499760  0.499760  0.433690  0.367620  0.367620  0.400660  0.400660  0.334590  0.334590  0.268520  0.202450  0.268520  0.334590  0.367620  0.334590  0.301550  0.334590  0.367620  0.367620  0.400660  0.466720  0.433690  0.466720  0.400660  0.367620  0.367620  0.334590  0.268520  0.235490  0.268520  0.268520  0.235490  0.202450  0.235490  0.334590  0.367620  0.367620  0.334590  0.367620  0.367620  0.367620  0.301550  0.334590  0.367620  0.367620  0.301550  0.235490  0.169420  0.202450  0.268520 
Shapelet   5   0.124210  0.127370  0.132010  0.136100  0.137480  0.142230  0.153640  0.163530  0.166740  0.171380  0.179730  0.184790  0.188040  0.197640  0.212960  0.223630  0.228970  0.238670  0.253780  0.267540  0.278330  0.289130  0.294630  0.290680  0.288290  0.292780  0.294550  0.288810  0.285040  0.289740  0.294460  0.292640  0.288560  0.289160  0.295830  0.303490  0.309670  0.313210  0.311990  0.306500  0.298610  0.291560  0.284150  0.275580  0.269280  0.267320  0.270520  0.274430  0.276270  0.275760  0.274150  0.276650  0.283730  0.295030  0.311320  0.331920  0.356310  0.385080  0.419050  0.448300  0.463690  0.472150  0.480330  0.484210  0.479400  0.471040  0.464500  0.459790  0.457890  0.454670  0.443680  0.427210  0.411540  0.397040  0.378470  0.357150  0.339900  0.325730  0.308900  0.286470  0.262790  0.241040  0.218510  0.196440  0.177160  0.160340  0.141590  0.118690  0.097327  0.083490  0.079257  0.079852  0.081310  0.086747  0.097112  0.109360  0.120600  0.130410  0.136850  0.137810  0.136470  0.133340  0.125310  0.113260  0.099593  0.082887  0.063376  0.048630  0.042885  0.040231  0.035379  0.030709  0.029859  0.030269  0.025985  0.016584  0.007744  0.003351  0.000016 -0.006619 -0.014254 -0.019082 -0.021051 -0.021217 -0.018765 -0.014591 -0.012984 -0.014854 -0.015373 -0.012706 -0.013386 -0.024475 -0.042441 -0.055695 -0.058878 -0.058237 -0.060660 -0.065158 -0.068940 -0.072128 -0.072001 -0.067527 -0.064757 -0.065685 -0.062932 -0.054464 -0.051092 -0.058005 -0.066915 -0.072235 -0.078863 -0.091646 -0.107150 -0.121820 -0.137080 -0.149720 -0.153910 -0.152950 -0.155210 -0.159760 -0.160420 -0.158020 -0.154210 -0.149040 -0.146760 -0.150120 -0.153890 -0.153350 -0.153560 -0.159260 -0.165050 -0.164780 -0.160490 -0.158480 -0.159270 -0.159160 -0.159570 -0.163040 -0.168390 -0.171770 -0.170420 -0.164350 -0.156090 -0.151460 -0.152410 -0.154300 -0.152670 -0.148190 -0.146630 -0.150890 -0.158580 -0.165770 -0.169930 -0.172820 -0.176620 -0.180120 -0.178500 -0.170730 -0.164420 -0.164180 -0.167760 -0.171570 -0.173200 -0.171170 -0.166800 -0.165200 -0.165710 -0.163240 -0.158800 -0.157400 -0.161670 -0.169610 -0.178220 -0.184820 -0.188280 -0.192760 -0.200590 -0.208050 -0.209810 -0.205890 -0.202830 -0.203090 -0.202660 -0.197700 -0.191590 -0.191310 -0.195420 -0.197970 -0.197400 -0.194750 -0.189880 -0.184850 -0.185690 -0.190260 -0.189620 -0.184030 -0.181960 -0.186850 -0.190950 -0.187220 -0.178040 -0.169230 -0.164150 -0.160600 -0.156440 -0.153100 -0.154240 -0.161320 -0.166100 -0.162730 -0.159190 -0.164300 -0.173410 -0.177630 -0.178310 -0.178330 -0.177380 -0.178570 -0.182640 -0.184920 -0.184390 -0.186530 -0.191020 -0.189490 -0.180920 -0.173110 -0.171430 -0.171970 -0.166800 -0.155950 -0.148010 -0.145840 -0.141200 -0.129680 -0.120130 -0.120110 -0.122950 -0.122070 -0.118910 -0.114360 -0.105410 -0.086688 -0.059563 -0.025493  0.014519  0.054792  0.096391  0.140690  0.193210  0.251660  0.304460  0.353660  0.400120  0.459610  0.547750  0.666560  0.812140  0.960250  1.108300  1.254100  1.396500  1.546500  1.704900  1.887000  2.083800  2.287800  2.510700  2.754500  3.031200  3.315600  3.593200  3.865100  4.119500  4.362300  4.572200  4.763400  4.963700  5.177100  5.400300  5.583300  5.733400  5.901900  6.117100  6.364500  6.607500  6.863100  7.133100  7.369700  7.541300  7.642200  7.695300  7.703000  7.645000  7.510700  7.286000  6.962000  6.547500  6.058000  5.543000  5.036800  4.558700  4.110500  3.670500  3.241900  2.797000  2.309000  1.746700  1.070700  0.261870 -0.677250 -1.630600 -2.443600 -3.029300 -3.394300 -3.605100 -3.681600 -3.647700 -3.550000 -3.426500 -3.296800 -3.160200 -3.044800 -2.981500 -2.979100 -3.024000 -3.078000 -3.104200 -3.087300 -3.034700 -2.963700 -2.889600 -2.805600 -2.715000 -2.606100 -2.471400 -2.315300 -2.151100 -2.011100 -1.900900 -1.816900 -1.749000 -1.688000 -1.636000 -1.580000 -1.520900 -1.465300 -1.421200 -1.394600 -1.366000 -1.330700 -1.292500 -1.263800 -1.250600 -1.238700 -1.226900 -1.211800 -1.196700 -1.187800 -1.178800 -1.163800 -1.140300 -1.120700 -1.107600 -1.088700 -1.063700 -1.036800 -1.011000 -0.981070 -0.946180 -0.914210 -0.881410 -0.844660 -0.807010 -0.774390 -0.746210 -0.717370 -0.695150 -0.674170 -0.643120 -0.609500 -0.584150 -0.563760 -0.537250 -0.511760 -0.495500 -0.481030 -0.465540 -0.450080 -0.436030 -0.421240 -0.405060 -0.391410 -0.379410 -0.369690 -0.362490 -0.357640 -0.354730 -0.350610 -0.347060 -0.343460 -0.339050 -0.335990 -0.333100 -0.327290 -0.316000 -0.303200 -0.292750 -0.285790 -0.285790 -0.289870 -0.292110 -0.291730 -0.291710 -0.291450 -0.287700 -0.283560 -0.280100 -0.275510 -0.272740 -0.272510 -0.272450 -0.272280 -0.273850 -0.272920 -0.265360 -0.258560 -0.255380 -0.249740 -0.241820 -0.239040 -0.241710 -0.239220 -0.228220 -0.217160 -0.213630 -0.216540 -0.217690 -0.213050 -0.205120 -0.198830 -0.197100 -0.197130 -0.196780 -0.196760 -0.198050 -0.197090 -0.187700 -0.173670 -0.165820 -0.166680 -0.165910 -0.157900 -0.152170 -0.152710 -0.151610 -0.147090 -0.147330 -0.154430 -0.159320 -0.157770 -0.153730 -0.149990 -0.146170 -0.141860 -0.139770 -0.140160 -0.140520 -0.140400 -0.140210 -0.140380 -0.140470 -0.139160 -0.134240 -0.128250 -0.128590 -0.133050 -0.133960 -0.133870 -0.139670 -0.148330 -0.152270 -0.154020 -0.158510 -0.161760 -0.158310 -0.150320 -0.144250 -0.140940 -0.139170 -0.140620 -0.141990 -0.138260 -0.134000 -0.136680 -0.140430 -0.136930 -0.133750 -0.138070 -0.142690 -0.140670 -0.135990 -0.133490 -0.130020 -0.124540 -0.121540 -0.121950 -0.120920 -0.116520 -0.115270 -0.120210 -0.125800 -0.127830 -0.127440 -0.128500 -0.132620 -0.137840 -0.140440 -0.139900 -0.141240 -0.145410 -0.147720 -0.146750 -0.148120 -0.155270 -0.159850 -0.156320 -0.152960 


; cmd = /home/grad00/soren885/capstone/ShapeletResearch/Execs/FastShapelet ./Shapelet_Datasets/UCR_CV_DATA/CinC_ECG_torso_TRAIN_CV2 4 21 820 1 2 10 manhattan 1 0 10 ./cv_output/CinC_ECG_torso_CV2/CinC_ECG_torso_CV2_manhattan_unnormed_CID_tree.txt ./cv_output/CinC_ECG_torso_CV2/CinC_ECG_torso_CV2_manhattan_unnormed_CID_time.txt
; time =>  393.107   5.832  23.149   1.904 359.882 
; command = /home/grad00/soren885/capstone/ShapeletResearch/Execs/Classify ./Shapelet_Datasets/UCR_CV_DATA/CinC_ECG_torso_TRAIN_CV1 4 19 manhattan 1 0 ./cv_output/CinC_ECG_torso_CV2/CinC_ECG_torso_CV2_manhattan_unnormed_CID_tree.txt ./cv_output/CinC_ECG_torso_CV2/CinC_ECG_torso_CV2_manhattan_unnormed_CID_acc.txt
; accuracy= 52.632   Correct:10 , Wrong: 9


;   == Confusion Matrix ==
;   real |   1    2    3    4 
;   -----+------------------------
;   p  1 |   1    0    0    1 
;   p  2 |   0    2    1    0 
;   p  3 |   1    3    3    0 
;   p  4 |   0    1    2    4 

