;Shapelet Tree 

;random seed:1503476686, rand()=255646706, rand()=1042891697
;command = /home/grad00/soren885/capstone/ShapeletResearch/Execs/FastShapelet /home/grad00/soren885/capstone/Shapelet_Datasets/UCR_CV_DATA/CinC_ECG_torso_TRAIN_CV2 4 21 820 1 2 10 correlation 1 0 10 ./cv_output/CinC_ECG_torso_CV2/CinC_ECG_torso_CV2_correlation_unnormed_CID_tree.txt ./cv_output/CinC_ECG_torso_CV2/CinC_ECG_torso_CV2_correlation_unnormed_CID_time.txt 

;Local Class:   0  1  2  3 
;Real  Class:   1  2  3  4 

;Node ID class   obj  pos  len  dist_th 
TreeSize: 8 
NonL  1    --     17  761  349   0.1433 ==>   0   0   6   5  /   3   7   0   0 
NonL  2    --      6  838  757   1.0334 ==>   0   0   0   5  /   0   0   6   0 
NonL  3    --      3  1007  337   0.2428 ==>   0   7   0   0  /   3   0   0   0 
Leaf  4     4    
Leaf  5     3    
Leaf  6     2    
Leaf  7     1    

;Shapelet id   <data>
Shapelet   1  -0.516350 -0.517330 -0.526940 -0.549800 -0.552760 -0.536480 -0.543800 -0.554060 -0.539120 -0.538990 -0.557660 -0.557000 -0.549470 -0.557690 -0.570860 -0.576520 -0.569230 -0.555900 -0.552050 -0.555250 -0.554700 -0.553250 -0.555020 -0.554640 -0.552860 -0.555980 -0.554760 -0.541790 -0.532850 -0.535920 -0.537830 -0.530580 -0.516350 -0.501900 -0.497150 -0.498410 -0.487640 -0.467590 -0.461530 -0.463490 -0.452080 -0.441950 -0.443420 -0.434980 -0.422140 -0.423340 -0.420070 -0.398140 -0.372540 -0.355760 -0.346980 -0.333990 -0.316410 -0.313170 -0.313630 -0.292960 -0.263650 -0.239530 -0.221820 -0.220890 -0.219700 -0.195110 -0.176110 -0.182230 -0.176430 -0.145770 -0.125610 -0.116290 -0.090761 -0.069349 -0.070438 -0.064524 -0.050384 -0.050953 -0.048052 -0.029282 -0.016455 -0.008773  0.008782  0.022001  0.020756  0.025562  0.039440  0.042268  0.042543  0.057040  0.072649  0.081575  0.095278  0.110940  0.116440  0.115780  0.116060  0.114440  0.115700  0.126990  0.140640  0.153420  0.167260  0.172950  0.171560  0.171590  0.170400  0.172020  0.173360  0.166930  0.174190  0.189980  0.180570  0.172070  0.186650  0.191510  0.190690  0.192240  0.176400  0.175090  0.203750  0.220990  0.232000  0.245740  0.235790  0.227080  0.244230  0.251380  0.241590  0.245370  0.259760  0.265460  0.264780  0.264450  0.263860  0.264820  0.265590  0.261620  0.265760  0.289940  0.314140  0.320860  0.331020  0.352560  0.356660  0.353070  0.375910  0.396670  0.393910  0.408350  0.438600  0.449770  0.456420  0.476010  0.501840  0.522520  0.522840  0.523090  0.547320  0.567370  0.579290  0.605700  0.620430  0.618220  0.637750  0.666840  0.674430  0.681360  0.706420  0.731090  0.753350  0.784560  0.805550  0.814670  0.839490  0.861950  0.870730  0.901840  0.939820  0.962360  0.999080  1.032300  1.042100  1.064900  1.085900  1.082900  1.097200  1.129700  1.153500  1.186300  1.225700  1.248900  1.269600  1.299600  1.324300  1.337000  1.350100  1.380300  1.419600  1.448400  1.475300  1.502800  1.514900  1.532300  1.570600  1.595800  1.606400  1.629900  1.656300  1.683800  1.721700  1.752800  1.776700  1.802500  1.818100  1.831800  1.857500  1.883900  1.908900  1.934400  1.957400  1.985600  2.011400  2.022600  2.039800  2.067500  2.082000  2.093400  2.123500  2.161500  2.193300  2.219000  2.242400  2.264500  2.275800  2.282000  2.310000  2.352100  2.378600  2.391800  2.407300  2.430000  2.459300  2.482000  2.493000  2.505900  2.518300  2.529000  2.552200  2.576300  2.587400  2.606200  2.634700  2.646600  2.644100  2.648400  2.662700  2.683900  2.712000  2.738200  2.752600  2.758600  2.759500  2.756200  2.759900  2.777800  2.802000  2.818600  2.815300  2.808200  2.822700  2.833700  2.819000  2.809700  2.815400  2.814400  2.812200  2.814700  2.813500  2.814100  2.812900  2.799500  2.785100  2.772600  2.746800  2.721100  2.724100  2.738900  2.733100  2.712800  2.688400  2.659800  2.638100  2.613600  2.580200  2.570600  2.573700  2.558700  2.549800  2.536800  2.495100  2.466600  2.441900  2.387500  2.350100  2.328800  2.287100  2.263700  2.253800  2.214700  2.179300  2.158800  2.120500  2.078700  2.043200  2.004200  1.975400  1.950100  1.911600  1.871900  1.834200  1.796600  1.769200  1.741800  1.703500  1.664300  1.625500  1.589300  1.562800  1.533700  1.495500  1.456700  1.417000  1.382100  1.356600  1.324600  1.287500  1.270500  1.263400  1.228500  1.174300  1.138900  1.117900  1.091900  1.067800  1.040500  1.001500  0.969440  0.948360  0.923000  0.896730  0.870710  0.832150 
Shapelet   2   0.359620  0.363290  0.367630  0.367420  0.368350  0.373340  0.377820  0.380060  0.380060  0.378970  0.379990  0.380090  0.381190  0.391240  0.398000  0.392790  0.392720  0.398140  0.397420  0.399400  0.404080  0.403120  0.407050  0.417100  0.421040  0.423080  0.428790  0.432730  0.435640  0.440810  0.444860  0.447550  0.453500  0.461970  0.469710  0.478200  0.486600  0.491250  0.494300  0.499030  0.505790  0.514980  0.523290  0.529770  0.540560  0.553570  0.561570  0.568560  0.577900  0.585630  0.592700  0.602260  0.613630  0.626300  0.638560  0.646550  0.652590  0.663150  0.675470  0.684040  0.693080  0.705290  0.717060  0.730430  0.747010  0.760990  0.771500  0.784060  0.797570  0.806780  0.815130  0.829450  0.845940  0.857810  0.868330  0.881650  0.894260  0.905070  0.917880  0.930820  0.941390  0.955320  0.973390  0.989350  1.002500  1.015600  1.030500  1.048100  1.063900  1.075100  1.088600  1.107200  1.123600  1.133400  1.141500  1.153300  1.169400  1.185000  1.196800  1.210300  1.228800  1.245100  1.258700  1.278300  1.299300  1.312000  1.323600  1.341900  1.359100  1.370900  1.385000  1.403800  1.422500  1.439800  1.458200  1.477700  1.494100  1.508600  1.525500  1.542500  1.557500  1.573800  1.591000  1.606300  1.622200  1.639400  1.655000  1.671000  1.687400  1.699100  1.711100  1.731900  1.752600  1.764800  1.778100  1.795400  1.808000  1.819100  1.832500  1.846400  1.864200  1.881300  1.891600  1.905400  1.923900  1.938300  1.954700  1.972600  1.983400  1.994200  2.008900  2.023100  2.040300  2.057000  2.064400  2.069600  2.081300  2.093100  2.101200  2.111100  2.122900  2.134500  2.147800  2.160100  2.168200  2.176800  2.185500  2.189500  2.193300  2.198200  2.203400  2.213900  2.222800  2.222100  2.221800  2.223600  2.220900  2.223400  2.229700  2.228200  2.227500  2.229700  2.224400  2.218700  2.217400  2.212500  2.205000  2.198400  2.189400  2.180000  2.174100  2.165900  2.153200  2.142900  2.131200  2.111500  2.092400  2.076800  2.059100  2.045200  2.034100  2.015100  1.993500  1.974600  1.953300  1.933200  1.914300  1.889600  1.864100  1.841800  1.819500  1.799300  1.775300  1.741300  1.709800  1.684100  1.654800  1.625100  1.599000  1.573400  1.549600  1.525700  1.496800  1.467300  1.440400  1.411800  1.382200  1.355500  1.331200  1.307500  1.282100  1.253700  1.227000  1.204000  1.175800  1.141000  1.112400  1.089500  1.061500  1.032700  1.010300  0.989750  0.967610  0.943930  0.918500  0.894340  0.871100  0.845840  0.821270  0.798120  0.776360  0.758020  0.736930  0.708100  0.680160  0.658490  0.638040  0.617170  0.597950  0.581460  0.566720  0.548810  0.528160  0.511020  0.494460  0.473940  0.455420  0.440830  0.424640  0.409490  0.400970  0.393330  0.378640  0.360290  0.345170  0.332840  0.319120  0.302900  0.288570  0.280170  0.272310  0.259930  0.247420  0.235770  0.223060  0.211480  0.199110  0.185740  0.178780  0.175760  0.167740  0.157990  0.151230  0.143380  0.131990  0.119830  0.111610  0.107940  0.102440  0.094048  0.088621  0.085298  0.081253  0.077651  0.071887  0.063609  0.058202  0.055222  0.051140  0.046744  0.042670  0.038965  0.035276  0.028974  0.020828  0.015694  0.013262  0.008567  0.003452  0.002767  0.002692 -0.001358 -0.006066 -0.009687 -0.014019 -0.016306 -0.014791 -0.014640 -0.016330 -0.014478 -0.013985 -0.021392 -0.028598 -0.032064 -0.039333 -0.047170 -0.050550 -0.054507 -0.057926 -0.057158 -0.056391 -0.058181 -0.062537 -0.067842 -0.069090 -0.068845 -0.072859 -0.076169 -0.074837 -0.074166 -0.076919 -0.081168 -0.085452 -0.089171 -0.093395 -0.097916 -0.099609 -0.098739 -0.098549 -0.100830 -0.106030 -0.110330 -0.112360 -0.119100 -0.127810 -0.129080 -0.129600 -0.134180 -0.135130 -0.135500 -0.140050 -0.143930 -0.149470 -0.157950 -0.162760 -0.167200 -0.176090 -0.182270 -0.182340 -0.182590 -0.186340 -0.190980 -0.194700 -0.198630 -0.203230 -0.206750 -0.207210 -0.205860 -0.206930 -0.211060 -0.214990 -0.219520 -0.227690 -0.235200 -0.236340 -0.235880 -0.239670 -0.242910 -0.242490 -0.244480 -0.250230 -0.254060 -0.256830 -0.262640 -0.266400 -0.265630 -0.268050 -0.272250 -0.272110 -0.273890 -0.278270 -0.278420 -0.279700 -0.284360 -0.285120 -0.284050 -0.284390 -0.284040 -0.286120 -0.290660 -0.291280 -0.289290 -0.290810 -0.295160 -0.297420 -0.295900 -0.291900 -0.287100 -0.284010 -0.284090 -0.285060 -0.283770 -0.279570 -0.274760 -0.271620 -0.267600 -0.259790 -0.252350 -0.248830 -0.245620 -0.240420 -0.236670 -0.236410 -0.235980 -0.230870 -0.222480 -0.215980 -0.212560 -0.208960 -0.204110 -0.200460 -0.196950 -0.191630 -0.188470 -0.185540 -0.176990 -0.170170 -0.167070 -0.158450 -0.152600 -0.157410 -0.158210 -0.151220 -0.147460 -0.142820 -0.131660 -0.123580 -0.120990 -0.114070 -0.105620 -0.104560 -0.104240 -0.099477 -0.095706 -0.090225 -0.081506 -0.076529 -0.073585 -0.069061 -0.065217 -0.060757 -0.056895 -0.056836 -0.057062 -0.056965 -0.057695 -0.055001 -0.050699 -0.050561 -0.051458 -0.051058 -0.054758 -0.061310 -0.062845 -0.062297 -0.066452 -0.068892 -0.064339 -0.061270 -0.064185 -0.068237 -0.072018 -0.076456 -0.080356 -0.084100 -0.088784 -0.092620 -0.093293 -0.093368 -0.098258 -0.106960 -0.113280 -0.116680 -0.120680 -0.125000 -0.128810 -0.132990 -0.136980 -0.141000 -0.145320 -0.148740 -0.153390 -0.161580 -0.168840 -0.170700 -0.170360 -0.172780 -0.177680 -0.181810 -0.184940 -0.190300 -0.198640 -0.205270 -0.206560 -0.206280 -0.209550 -0.213590 -0.212990 -0.211000 -0.214950 -0.223650 -0.229360 -0.231390 -0.236070 -0.241760 -0.242000 -0.242400 -0.249990 -0.257770 -0.260490 -0.263920 -0.269390 -0.272580 -0.276020 -0.282020 -0.284370 -0.283670 -0.287190 -0.290570 -0.290080 -0.292840 -0.296820 -0.296420 -0.298270 -0.303370 -0.303140 -0.300550 -0.303850 -0.308100 -0.307840 -0.309430 -0.313900 -0.314570 -0.314990 -0.319810 -0.321820 -0.319040 -0.320050 -0.324940 -0.326260 -0.326270 -0.330180 -0.333220 -0.332230 -0.331830 -0.332600 -0.332210 -0.331840 -0.333750 -0.338980 -0.343700 -0.343860 -0.344700 -0.349090 -0.350950 -0.350060 -0.350150 -0.349940 -0.350710 -0.354980 -0.359870 -0.362780 -0.362640 -0.358830 -0.355410 -0.355960 -0.356910 -0.355520 -0.355940 -0.360060 -0.362850 -0.362260 -0.361840 -0.362360 -0.362210 -0.362030 -0.362230 -0.362200 -0.362110 -0.362180 -0.362190 -0.362120 -0.362290 -0.362030 -0.358360 -0.352090 -0.350490 -0.354860 -0.357320 -0.355790 -0.355740 -0.357160 -0.355250 -0.350900 -0.349300 -0.350610 -0.350480 -0.349060 -0.351990 -0.360930 -0.368080 -0.366640 -0.362380 -0.362130 -0.361120 -0.356400 -0.354640 -0.358330 -0.362220 -0.362720 -0.361590 -0.362280 -0.363020 -0.359820 -0.356000 -0.355810 -0.356260 -0.356340 -0.360050 -0.365920 -0.368250 -0.368010 -0.368710 -0.367510 -0.363140 -0.360900 -0.363020 -0.367170 -0.371800 -0.374640 -0.374310 -0.373890 -0.373780 -0.369060 -0.362580 -0.363530 -0.368010 -0.368040 -0.369340 -0.374060 -0.374930 -0.373580 -0.374190 -0.374340 -0.373870 -0.374230 -0.377200 -0.385220 -0.392550 -0.392860 -0.391310 -0.392310 -0.392620 -0.389840 -0.385360 -0.384890 -0.389950 -0.392010 -0.391460 -0.395790 -0.397710 -0.392930 -0.391190 -0.392200 -0.391920 -0.395090 -0.398980 -0.398300 -0.397480 -0.398360 -0.398160 -0.397820 -0.398190 -0.398130 -0.397900 -0.398160 -0.398120 -0.397860 -0.398280 -0.398060 -0.397630 -0.398800 -0.397740 -0.393230 -0.391450 -0.392140 -0.391820 -0.393960 -0.399100 -0.403240 -0.405100 -0.403180 -0.398790 -0.397370 -0.398220 -0.398010 -0.400090 -0.406170 -0.410050 -0.407440 -0.402020 -0.398320 -0.397440 -0.398570 -0.398260 -0.394290 -0.390920 -0.392090 -0.396080 -0.399260 -0.398020 -0.393470 -0.391430 -0.392170 -0.392180 -0.392000 -0.392100 
Shapelet   3   0.191830  0.170980  0.140380  0.128880  0.144650  0.162140  0.157100  0.140520  0.135610  0.139780  0.140290  0.138390  0.138890  0.139260  0.139070  0.139710  0.138310  0.138350  0.141360  0.138700  0.134330  0.145020  0.161940  0.152840  0.116040  0.082046  0.063307  0.049685  0.034994  0.021108  0.007675 -0.007231 -0.021897 -0.031793 -0.029385 -0.015720 -0.002078  0.010819  0.028973  0.043127  0.037573  0.018280  0.002289 -0.006119 -0.005573  0.000522 -0.004117 -0.020927 -0.026776 -0.010717  0.003430 -0.003095 -0.018229 -0.030530 -0.044391 -0.057713 -0.053326 -0.041210 -0.056900 -0.090008 -0.099734 -0.097039 -0.119710 -0.148960 -0.150220 -0.147750 -0.165230 -0.177820 -0.170150 -0.164330 -0.175890 -0.190470 -0.201540 -0.217920 -0.234850 -0.243890 -0.256070 -0.281590 -0.290930 -0.263240 -0.239750 -0.252760 -0.277490 -0.288480 -0.298400 -0.316150 -0.330340 -0.343110 -0.357760 -0.371070 -0.386370 -0.401540 -0.412040 -0.425490 -0.452780 -0.480670 -0.494430 -0.509470 -0.525620 -0.522880 -0.505110 -0.497140 -0.507410 -0.521890 -0.532370 -0.529550 -0.512110 -0.504130 -0.516940 -0.536550 -0.549480 -0.561090 -0.577380 -0.591170 -0.604870 -0.619680 -0.627150 -0.622940 -0.617360 -0.628360 -0.644010 -0.646870 -0.647060 -0.657730 -0.675190 -0.688520 -0.703580 -0.717800 -0.718960 -0.719070 -0.731800 -0.752470 -0.765200 -0.766310 -0.765960 -0.765300 -0.765660 -0.765880 -0.765410 -0.766160 -0.765140 -0.765900 -0.766020 -0.764570 -0.766340 -0.766670 -0.764520 -0.763350 -0.772800 -0.789170 -0.801790 -0.817710 -0.833060 -0.838060 -0.837230 -0.845020 -0.864800 -0.879370 -0.889600 -0.905120 -0.922700 -0.933370 -0.932680 -0.932590 -0.933450 -0.924800 -0.908450 -0.899900 -0.917030 -0.946560 -0.973990 -1.003800 -1.025900 -1.024400 -1.007200 -1.004000 -1.005400 -0.981450 -0.950590 -0.935000 -0.929550 -0.930900 -0.951010 -0.984870 -1.002200 -1.002700 -1.003200 -1.006100 -1.003700 -0.989470 -0.973780 -0.959760 -0.950770 -0.957030 -0.971070 -0.983050 -0.995370 -1.022800 -1.051200 -1.047900 -1.019600 -0.989760 -0.969540 -0.957690 -0.952930 -0.957350 -0.958580 -0.950940 -0.936090 -0.918630 -0.908240 -0.906530 -0.908070 -0.892870 -0.859240 -0.837240 -0.835920 -0.834590 -0.818220 -0.812270 -0.836950 -0.860990 -0.856890 -0.839810 -0.838170 -0.838780 -0.814550 -0.784030 -0.768960 -0.760610 -0.745210 -0.728530 -0.716170 -0.691170 -0.650310 -0.607980 -0.573590 -0.550360 -0.543130 -0.559500 -0.575850 -0.561370 -0.527810 -0.505780 -0.504400 -0.505420 -0.497630 -0.481570 -0.462780 -0.455560 -0.456390 -0.454310 -0.455400 -0.468950 -0.480360 -0.457350 -0.405540 -0.365500 -0.350750 -0.334580 -0.303920 -0.282360 -0.270220 -0.250850 -0.242310 -0.256330 -0.267230 -0.264740 -0.273880 -0.289670 -0.281300 -0.259940 -0.246330 -0.233530 -0.219250 -0.215660 -0.217830 -0.205070 -0.182540 -0.171050 -0.171150 -0.170080 -0.167460 -0.175980 -0.191670 -0.198090 -0.193900 -0.182490 -0.160390 -0.130870 -0.109310 -0.099186 -0.086718 -0.069773 -0.055664 -0.043999 -0.028859 -0.011518 -0.002719 -0.003487 -0.001041  0.016427  0.046390  0.070809  0.074395  0.058687  0.044436  0.050127  0.069923  0.086890  0.092844  0.092024  0.090203  0.091574  0.102790  0.122720  0.137940  0.134490  0.115750  0.098118  0.090283  0.090557  0.092351  0.091531  0.090519  0.091937  0.093336  0.086326  0.070138  0.061072  0.069301  0.074054  0.060396  0.061606  0.095522  0.115120  0.098624 


; cmd = /home/grad00/soren885/capstone/ShapeletResearch/Execs/FastShapelet /home/grad00/soren885/capstone/Shapelet_Datasets/UCR_CV_DATA/CinC_ECG_torso_TRAIN_CV2 4 21 820 1 2 10 correlation 1 0 10 ./cv_output/CinC_ECG_torso_CV2/CinC_ECG_torso_CV2_correlation_unnormed_CID_tree.txt ./cv_output/CinC_ECG_torso_CV2/CinC_ECG_torso_CV2_correlation_unnormed_CID_time.txt
; time =>  766.652   5.783  24.012   2.008 732.092 
; command = /home/grad00/soren885/capstone/ShapeletResearch/Execs/Classify /home/grad00/soren885/capstone/Shapelet_Datasets/UCR_CV_DATA/CinC_ECG_torso_TRAIN_CV1 4 19 correlation 1 0 ./cv_output/CinC_ECG_torso_CV2/CinC_ECG_torso_CV2_correlation_unnormed_CID_tree.txt ./cv_output/CinC_ECG_torso_CV2/CinC_ECG_torso_CV2_correlation_unnormed_CID_acc.txt
; accuracy= 47.368   Correct:9 , Wrong: 10


;   == Confusion Matrix ==
;   real |   1    2    3    4 
;   -----+------------------------
;   p  1 |   2    2    0    0 
;   p  2 |   0    1    0    2 
;   p  3 |   0    2    4    1 
;   p  4 |   0    1    2    2 

