;Shapelet Tree 

;random seed:1502361782, rand()=596132617, rand()=66336163
;command = /home/grad00/soren885/capstone/ShapeletResearch/Execs/FastShapelet ./Shapelet_Datasets/UCR_CV_DATA/CinC_ECG_torso_TRAIN_CV2 4 21 820 1 2 10 manhattan 0 0 10 ./cv_output/CinC_ECG_torso_CV2/CinC_ECG_torso_CV2_manhattan_unnormed_NOCID_tree.txt ./cv_output/CinC_ECG_torso_CV2/CinC_ECG_torso_CV2_manhattan_unnormed_NOCID_time.txt 

;Local Class:   0  1  2  3 
;Real  Class:   1  2  3  4 

;Node ID class   obj  pos  len  dist_th 
TreeSize: 16 
NonL  1    --      6  1199  265  66.4399 ==>   0   7   5   0  /   3   0   1   5 
NonL  2    --      0  371  261  37.0221 ==>   0   7   0   0  /   0   0   5   0 
NonL  3    --      5  953  683  315.8166 ==>   0   0   0   5  /   3   0   1   0 
Leaf  4     2    
Leaf  5     3    
Leaf  6     4    
NonL  7    --      3  390  415  129.5646 ==>   0   0   1   0  /   3   0   0   0 
Leaf 14     3    
Leaf 15     1    

;Shapelet id   <data>
Shapelet   1  -1.085900 -1.066500 -1.047100 -1.048400 -1.068100 -1.084900 -1.099900 -1.115500 -1.126800 -1.125200 -1.119500 -1.124600 -1.127400 -1.117600 -1.100800 -1.093300 -1.098100 -1.107700 -1.133000 -1.165500 -1.188100 -1.202000 -1.208000 -1.196600 -1.163600 -1.135700 -1.124800 -1.119900 -1.125100 -1.128100 -1.114100 -1.098600 -1.098800 -1.096300 -1.076800 -1.071400 -1.074500 -1.049900 -1.018500 -1.013600 -1.018500 -1.001300 -0.977480 -0.967340 -0.962830 -0.969750 -0.986480 -0.996930 -0.994070 -0.981200 -0.961160 -0.929140 -0.900470 -0.889200 -0.881400 -0.856840 -0.809670 -0.763830 -0.735750 -0.717880 -0.704370 -0.698690 -0.711290 -0.728750 -0.727210 -0.705260 -0.682320 -0.679460 -0.681490 -0.668890 -0.653650 -0.650580 -0.651830 -0.636990 -0.612760 -0.600640 -0.609480 -0.629420 -0.622380 -0.569200 -0.505190 -0.474770 -0.468660 -0.442690 -0.397790 -0.368010 -0.363300 -0.365120 -0.362200 -0.368400 -0.384960 -0.402030 -0.417300 -0.414490 -0.376870 -0.325500 -0.305820 -0.312560 -0.303120 -0.282960 -0.281650 -0.287950 -0.266860 -0.225710 -0.207790 -0.222040 -0.242290 -0.256730 -0.274010 -0.286910 -0.276300 -0.248280 -0.216920 -0.190750 -0.182050 -0.184820 -0.177510 -0.160370 -0.149620 -0.131570 -0.094487 -0.076670 -0.095244 -0.101620 -0.059216  0.001036  0.029250  0.016437 -0.012374 -0.025551 -0.014133  0.002958  0.017391  0.036397  0.052706  0.046605  0.026794  0.031515  0.068962  0.102490  0.100980  0.080167  0.073946  0.082526  0.084079  0.070365  0.054561  0.050375  0.054807  0.056746  0.047116  0.029885  0.021519  0.029019  0.033965  0.018212  0.001738  0.009719  0.028629  0.042912  0.062029  0.079152  0.071755  0.053433  0.051048  0.053880  0.052218  0.061428  0.078878  0.083797  0.078769  0.079102  0.079460  0.078797  0.098421  0.139660  0.163900  0.143690  0.109990  0.102170  0.105710  0.092176  0.073572  0.075627  0.093674  0.106050  0.098234  0.066973  0.033346  0.028455  0.052675  0.075587  0.079457  0.078371  0.082788  0.080763  0.064718  0.052858  0.066552  0.093861  0.105940  0.103240  0.107120  0.111990  0.096658  0.079917  0.090151  0.106530  0.106150  0.109520  0.127530  0.136010  0.132010  0.133110  0.129250  0.111960  0.101300  0.105450  0.109160  0.103890  0.089579  0.066425  0.053076  0.072089  0.113560  0.148400  0.162830  0.160290  0.146570  0.130730  0.127450  0.135950  0.135500  0.118800  0.105650  0.106110  0.104230  0.101550  0.127280  0.182650  0.227160  0.236840  0.235010  0.240880  0.238150  0.218560  0.212240  0.242460  0.281190  0.290350  0.282190  0.291940  0.312570  0.311110  0.292800  0.280170  0.260820  0.226640  0.206150  0.209080  0.210540  0.210570  0.225390  0.239570  0.238320 
Shapelet   2   0.043065  0.043890  0.033096  0.015476  0.001708 -0.011829 -0.026258 -0.038720 -0.055112 -0.071389 -0.075408 -0.074381 -0.085463 -0.100490 -0.101160 -0.100030 -0.116620 -0.140410 -0.146520 -0.132230 -0.119780 -0.121020 -0.125520 -0.123120 -0.119420 -0.126210 -0.141300 -0.151700 -0.147740 -0.133980 -0.119060 -0.093020 -0.052745 -0.028221 -0.037593 -0.052790 -0.051520 -0.055330 -0.072219 -0.079829 -0.074599 -0.063366 -0.040085 -0.010327  0.007711  0.020304  0.038147  0.044096  0.042209  0.050227  0.044823  0.004218 -0.034583 -0.034758 -0.017067 -0.004729 -0.004765 -0.037034 -0.095798 -0.145430 -0.185680 -0.241680 -0.294960 -0.313410 -0.313070 -0.314100 -0.306440 -0.288760 -0.274230 -0.258980 -0.229780 -0.194620 -0.170880 -0.157440 -0.140510 -0.112130 -0.078633 -0.052936 -0.044747 -0.054163 -0.058007 -0.036524 -0.006886  0.002869 -0.005239 -0.007948  0.004453  0.035198  0.074563  0.091515  0.078736  0.062311  0.050013  0.019062 -0.028904 -0.063562 -0.079351 -0.092596 -0.114240 -0.145450 -0.170530 -0.165890 -0.135620 -0.110300 -0.099884 -0.096737 -0.099786 -0.090854 -0.054647 -0.027967 -0.041117 -0.050476 -0.021573  0.002973 -0.002158 -0.000142  0.021233  0.037669  0.047985  0.062737  0.076434  0.091129  0.117490  0.147980  0.175830  0.202350  0.211160  0.188200  0.157300  0.153870  0.177910  0.206530  0.232960  0.263420  0.294260  0.311380  0.308370  0.293910  0.281090  0.278000  0.286700  0.301890  0.310590  0.305550  0.300860  0.309340  0.310930  0.291340  0.281510  0.305700  0.335780  0.348150  0.365350  0.397440  0.420110  0.424980  0.424860  0.424120  0.423990  0.433300  0.450920  0.465770  0.477420  0.491540  0.514220  0.545800  0.567730  0.563240  0.547380  0.538340  0.520500  0.486840  0.471780  0.488400  0.501930  0.496750  0.501600  0.525580  0.530820  0.501070  0.474040  0.472840  0.470780  0.454140  0.447940  0.450030  0.436180  0.424800  0.438010  0.451970  0.449510  0.449420  0.448440  0.423870  0.391120  0.376970  0.381730  0.399880  0.428440  0.454130  0.467710  0.479930  0.494950  0.500500  0.494890  0.492500  0.502940  0.518080  0.523760  0.519380  0.517080  0.523170  0.523260  0.502470  0.470840  0.450930  0.449450  0.450890  0.436180  0.401540  0.365660  0.351610  0.353110  0.351740  0.352760  0.365510  0.379940  0.392480  0.412440  0.425180  0.412820  0.400580  0.413610  0.431170  0.427830  0.412700  0.399930  0.386380  0.371010  0.357180  0.343300  0.329320  0.324030  0.334350  0.349810  0.355620  0.353530  0.352050  0.354600  0.367380  0.391330  0.401970  0.379980  0.347990  0.332020  0.328250  0.328870  0.332670  0.328140  0.312200  0.304100 
Shapelet   3   1.350100  1.380300  1.419600  1.448400  1.475300  1.502800  1.514900  1.532300  1.570600  1.595800  1.606400  1.629900  1.656300  1.683800  1.721700  1.752800  1.776700  1.802500  1.818100  1.831800  1.857500  1.883900  1.908900  1.934400  1.957400  1.985600  2.011400  2.022600  2.039800  2.067500  2.082000  2.093400  2.123500  2.161500  2.193300  2.219000  2.242400  2.264500  2.275800  2.282000  2.310000  2.352100  2.378600  2.391800  2.407300  2.430000  2.459300  2.482000  2.493000  2.505900  2.518300  2.529000  2.552200  2.576300  2.587400  2.606200  2.634700  2.646600  2.644100  2.648400  2.662700  2.683900  2.712000  2.738200  2.752600  2.758600  2.759500  2.756200  2.759900  2.777800  2.802000  2.818600  2.815300  2.808200  2.822700  2.833700  2.819000  2.809700  2.815400  2.814400  2.812200  2.814700  2.813500  2.814100  2.812900  2.799500  2.785100  2.772600  2.746800  2.721100  2.724100  2.738900  2.733100  2.712800  2.688400  2.659800  2.638100  2.613600  2.580200  2.570600  2.573700  2.558700  2.549800  2.536800  2.495100  2.466600  2.441900  2.387500  2.350100  2.328800  2.287100  2.263700  2.253800  2.214700  2.179300  2.158800  2.120500  2.078700  2.043200  2.004200  1.975400  1.950100  1.911600  1.871900  1.834200  1.796600  1.769200  1.741800  1.703500  1.664300  1.625500  1.589300  1.562800  1.533700  1.495500  1.456700  1.417000  1.382100  1.356600  1.324600  1.287500  1.270500  1.263400  1.228500  1.174300  1.138900  1.117900  1.091900  1.067800  1.040500  1.001500  0.969440  0.948360  0.923000  0.896730  0.870710  0.832150  0.795530  0.783450  0.771550  0.741710  0.728070  0.730870  0.711350  0.681110  0.657970  0.622560  0.583530  0.563180  0.550500  0.536560  0.525440  0.513520  0.495360  0.468080  0.440120  0.423800  0.412380  0.398920  0.388090  0.373890  0.359060  0.358790  0.355180  0.329060  0.305610  0.301890  0.302590  0.294990  0.277990  0.265210  0.265830  0.261250  0.247540  0.244520  0.244280  0.229730  0.213820  0.205130  0.191610  0.175450  0.170870  0.171770  0.161590  0.144560  0.134360  0.123700  0.105490  0.097144  0.099066  0.089479  0.077960  0.078666  0.072898  0.057754  0.045585  0.030643  0.022722  0.036110  0.047377  0.037588  0.024125  0.022069  0.021385  0.007948 -0.009923 -0.014663 -0.013818 -0.024378 -0.036472 -0.034063 -0.029381 -0.038711 -0.051268 -0.053351 -0.051319 -0.051752 -0.051325 -0.055410 -0.070687 -0.076704 -0.059741 -0.052171 -0.066374 -0.070973 -0.071198 -0.085462 -0.086759 -0.067312 -0.053785 -0.049883 -0.053466 -0.066944 -0.074154 -0.069006 -0.069013 -0.074148 -0.066928 -0.053377 -0.050533 -0.051926 -0.051330 -0.060148 -0.076441 -0.088001 -0.099604 -0.112030 -0.108480 -0.093124 -0.089296 -0.089117 -0.075883 -0.071185 -0.089618 -0.105970 -0.107260 -0.107850 -0.109620 -0.101280 -0.087802 -0.085941 -0.097021 -0.109500 -0.121710 -0.136440 -0.145970 -0.145660 -0.143940 -0.145340 -0.145300 -0.143500 -0.146880 -0.160260 -0.176410 -0.183080 -0.182200 -0.182350 -0.181480 -0.181580 -0.192260 -0.204800 -0.201260 -0.194830 -0.211890 -0.237790 -0.242130 -0.234250 -0.238350 -0.251900 -0.259070 -0.256190 -0.254240 -0.263420 -0.276330 -0.276890 -0.276280 -0.298670 -0.315210 -0.298050 -0.297460 -0.326160 -0.331740 -0.334640 -0.362910 -0.373580 -0.366740 -0.368140 -0.365560 -0.374360 -0.402450 -0.411250 -0.402080 -0.404600 -0.416380 -0.430190 -0.442410 -0.444420 -0.441340 -0.442770 -0.443850 -0.440860 -0.443080 -0.454930 -0.469040 -0.480800 -0.483300 -0.471030 -0.460800 -0.461790 -0.455140 -0.440590 -0.439550 -0.452170 -0.462890 -0.463150 -0.452800 -0.439160 -0.426830 -0.413360 -0.403280 -0.404490 -0.408660 -0.401240 -0.387990 -0.385080 -0.386140 -0.370400 -0.342680 -0.324620 -0.312940 -0.298450 -0.292330 -0.293810 -0.293190 -0.295310 -0.293340 -0.279750 -0.273410 -0.274920 -0.263040 -0.250200 -0.258830 -0.273830 -0.269960 -0.254080 -0.253330 -0.262670 -0.252230 -0.237480 -0.248330 -0.255750 -0.240450 -0.240700 -0.264360 -0.275660 -0.266080 -0.251260 -0.238980 -0.234680 -0.242090 -0.255540 -0.268990 -0.278160 -0.275410 -0.270780 -0.283320 -0.293780 -0.281060 -0.275490 -0.295210 -0.311180 -0.311260 -0.313140 -0.325560 -0.336450 -0.328780 -0.314240 -0.312770 -0.311520 -0.309810 -0.323380 -0.331050 -0.329200 -0.342900 -0.347980 -0.332560 -0.337660 -0.351720 -0.335270 -0.313170 -0.316020 -0.329860 -0.334130 -0.328450 -0.330500 -0.335980 -0.322690 -0.312350 -0.325270 -0.331740 -0.331190 -0.344410 -0.350690 -0.350030 -0.363580 -0.366740 -0.347200 -0.332730 -0.330060 -0.331330 -0.331930 -0.328340 -0.333200 -0.347090 -0.350920 -0.349710 -0.350610 -0.340890 -0.328390 -0.329460 -0.339850 -0.354870 -0.367370 -0.368810 -0.368600 -0.368770 -0.357800 -0.345840 -0.349070 -0.361240 -0.374220 -0.386780 -0.390470 -0.380130 -0.368050 -0.366620 -0.369140 -0.368320 -0.377950 -0.400070 -0.404420 -0.389310 -0.391130 -0.407680 -0.408730 -0.396120 -0.385060 -0.384310 -0.396970 -0.406470 -0.405170 -0.412460 -0.427840 -0.426530 -0.411050 -0.404810 -0.405640 -0.403410 -0.409080 -0.422910 -0.434510 -0.449870 -0.461330 -0.451310 -0.438070 -0.442730 -0.446130 -0.438270 -0.443340 -0.458820 -0.459740 -0.462300 -0.477550 -0.474730 -0.460150 -0.460580 -0.456350 -0.440290 -0.439130 -0.452070 -0.463630 -0.476430 -0.485150 -0.475910 -0.462390 -0.461540 -0.459920 -0.459640 -0.473690 -0.479720 -0.478850 -0.493340 -0.495870 -0.480780 -0.479500 -0.475950 -0.461750 -0.460050 -0.460240 -0.461430 -0.476020 -0.476170 -0.460970 -0.469880 -0.488300 -0.477970 -0.460840 -0.468810 -0.480570 -0.479220 -0.486340 -0.500300 -0.500200 -0.496200 -0.499320 -0.499330 -0.496370 -0.500540 -0.513690 -0.529160 -0.536840 -0.536020 -0.535680 -0.534050 -0.519680 -0.500930 -0.501530 -0.516310 -0.520090 -0.514610 -0.516960 -0.528990 -0.539610 -0.535730 -0.521370 -0.515470 -0.517250 -0.516150 -0.521960 -0.537150 -0.539930 -0.525760 -0.516750 -0.517760 -0.510640 -0.496210 -0.495220 -0.508770 -0.518180 -0.517630 -0.516350 -0.517290 -0.517220 -0.516840 -0.517060 -0.517120 -0.517120 -0.516850 -0.517080 -0.517470 -0.516460 -0.517050 -0.518840 -0.512630 -0.498900 -0.494820 -0.501780 -0.498430 -0.493260 -0.508710 -0.516790 -0.501540 -0.503070 -0.517850 -0.506380 -0.490630 -0.501280 -0.515630 -0.516310 -0.518460 -0.531620 -0.541130 -0.532110 -0.518470 -0.517250 -0.515090 -0.501200 -0.493410 -0.502830 -0.515880 -0.519760 -0.513730 -0.500230 -0.485220 -0.478060 -0.479780 -0.481000 -0.478520 -0.479940 -0.482330 -0.473880 -0.461130 -0.459100 -0.463250 -0.460810 -0.448550 -0.436500 -0.445060 -0.471800 -0.485980 -0.477720 -0.464210 -0.458350 -0.462530 -0.463680 -0.450410 -0.442850 -0.457120 -0.468080 -0.456120 -0.443260 -0.444070 -0.439240 -0.425470 -0.421800 -0.424800 -0.424200 -0.424030 -0.423440 -0.423970 -0.426470 -0.418380 -0.405590 -0.404240 -0.405150 -0.405710 -0.417540 -0.428580 -0.423160 -0.409540 -0.402400 -0.406250 -0.408160 
Shapelet   7   0.256950  0.279610  0.294450  0.270930  0.236890  0.228070  0.229110  0.224500  0.230520  0.231500  0.217160  0.238800  0.287420  0.296990  0.297230  0.323230  0.320550  0.284290  0.263170  0.256850  0.267400  0.314520  0.360700  0.351690  0.304560  0.258880  0.216100  0.193930  0.212760  0.230050  0.227190  0.243250  0.265380  0.262590  0.260710  0.256280  0.207620  0.154740  0.178640  0.250450  0.288370  0.295600  0.296020  0.276650  0.257090  0.259960  0.262950  0.260840  0.261960  0.246860  0.220430  0.224160  0.252470  0.260980  0.260000  0.269260  0.247940  0.200030  0.187030  0.198340  0.195900  0.194790  0.191850  0.166440  0.137830  0.127090  0.128620  0.131700  0.124190  0.099659  0.072045  0.061312  0.063189  0.051679  0.009575 -0.060845 -0.135800 -0.182170 -0.199930 -0.218800 -0.244650 -0.265690 -0.285120 -0.314600 -0.362170 -0.400160 -0.389510 -0.366870 -0.381420 -0.414370 -0.461640 -0.505090 -0.476440 -0.432310 -0.498310 -0.602940 -0.601340 -0.542180 -0.538010 -0.564090 -0.566720 -0.562720 -0.534730 -0.447910 -0.375850 -0.397260 -0.453560 -0.461680 -0.433750 -0.408540 -0.393590 -0.399120 -0.423380 -0.433820 -0.432590 -0.450600 -0.477060 -0.498490 -0.521020 -0.539620 -0.564640 -0.593310 -0.593530 -0.597930 -0.642850 -0.671140 -0.664090 -0.678140 -0.717100 -0.763790 -0.827320 -0.896080 -0.962660 -1.031100 -1.085000 -1.127800 -1.174800 -1.200500 -1.192500 -1.187500 -1.197000 -1.192400 -1.184200 -1.212300 -1.260600 -1.285900 -1.299300 -1.326300 -1.335600 -1.299900 -1.257000 -1.233800 -1.212400 -1.191400 -1.155300 -1.079400 -1.026400 -1.046300 -1.062200 -1.023500 -0.975320 -0.944320 -0.927150 -0.908670 -0.866810 -0.826930 -0.823510 -0.831570 -0.828980 -0.844810 -0.889780 -0.931780 -0.971100 -1.034400 -1.099200 -1.142400 -1.187300 -1.229200 -1.249700 -1.280300 -1.330300 -1.355700 -1.361600 -1.397400 -1.447600 -1.453400 -1.418500 -1.375700 -1.319100 -1.248900 -1.182300 -1.116900 -1.050800 -0.984420 -0.922670 -0.892800 -0.876720 -0.813210 -0.714860 -0.644630 -0.611640 -0.596010 -0.596330 -0.592360 -0.557320 -0.531190 -0.533450 -0.483670 -0.387570 -0.347390 -0.325630 -0.255570 -0.208690 -0.197960 -0.153920 -0.099403 -0.060747  0.004252  0.086922  0.135500  0.155060  0.188670  0.237920  0.261510  0.256380  0.265750  0.290060  0.296490  0.294550  0.296200  0.280470  0.257430  0.257850  0.267280  0.256650  0.233080  0.221420  0.232580  0.256030  0.267230  0.258170  0.257630  0.270300  0.253060  0.226820  0.255250  0.304650  0.324810  0.332750  0.321050  0.295800  0.305800  0.333800  0.354260  0.383980  0.390150  0.364200  0.358780  0.356770  0.331490  0.323780  0.325290  0.300150  0.283220  0.301950  0.324700  0.330500  0.323620  0.300420  0.269090  0.263370  0.288540  0.315160  0.330590  0.329310  0.319520  0.335630  0.359160  0.356590  0.367730  0.392550  0.377850  0.356220  0.360250  0.346870  0.318010  0.297650  0.271890  0.261950  0.288930  0.319160  0.326190  0.300130  0.262650  0.269440  0.293950  0.276730  0.257470  0.261080  0.257090  0.269510  0.293640  0.278160  0.256040  0.260620  0.258910  0.270680  0.321650  0.347600  0.302120  0.233420  0.211120  0.246860  0.291500  0.302170  0.285920  0.263380  0.239450  0.223500  0.227270  0.234450  0.218140  0.195750  0.208340  0.239540  0.230900  0.183140  0.155540  0.161730  0.150810  0.111000  0.095637  0.104520  0.078446  0.031781  0.008224 -0.015983 -0.036177 -0.016302 -0.002373 -0.034510 -0.065500 -0.068141 -0.068925 -0.086401 -0.117090 -0.135270 -0.119640 -0.086515 -0.069247 -0.083673 -0.123950 -0.167910 -0.178980 -0.156640 -0.168030 -0.234190 -0.293190 -0.333580 -0.352520 -0.293170 -0.201050 -0.170350 -0.162300 -0.135010 -0.115070 -0.082035 -0.035505 -0.013738  0.017809  0.098491  0.207900  0.310960  0.361030  0.373620  0.431600  0.529160  0.614010  0.715390  0.827050  0.878240  0.909360  1.030000  1.228200  1.417300  1.593700  1.792000  1.974900  2.121500  2.320700  2.608200  2.851500  2.968000  3.055200  3.178800  3.274800  3.327700  3.409600  3.540100  3.668400  3.772500  3.861300  3.935000  4.002000  4.085600  4.183300  4.266800  4.331300  4.392500  4.424700  4.370800  4.228400  4.080700  4.038900  4.110900 


; cmd = /home/grad00/soren885/capstone/ShapeletResearch/Execs/FastShapelet ./Shapelet_Datasets/UCR_CV_DATA/CinC_ECG_torso_TRAIN_CV2 4 21 820 1 2 10 manhattan 0 0 10 ./cv_output/CinC_ECG_torso_CV2/CinC_ECG_torso_CV2_manhattan_unnormed_NOCID_tree.txt ./cv_output/CinC_ECG_torso_CV2/CinC_ECG_torso_CV2_manhattan_unnormed_NOCID_time.txt
; time =>  153.548   5.299  19.323   1.728 125.425 
; command = /home/grad00/soren885/capstone/ShapeletResearch/Execs/Classify ./Shapelet_Datasets/UCR_CV_DATA/CinC_ECG_torso_TRAIN_CV1 4 19 manhattan 0 0 ./cv_output/CinC_ECG_torso_CV2/CinC_ECG_torso_CV2_manhattan_unnormed_NOCID_tree.txt ./cv_output/CinC_ECG_torso_CV2/CinC_ECG_torso_CV2_manhattan_unnormed_NOCID_acc.txt
; accuracy= 31.579   Correct:6 , Wrong: 13


;   == Confusion Matrix ==
;   real |   1    2    3    4 
;   -----+------------------------
;   p  1 |   0    1    3    2 
;   p  2 |   0    2    1    0 
;   p  3 |   2    3    2    1 
;   p  4 |   0    0    0    2 

