;Shapelet Tree 

;random seed:1502359922, rand()=810204707, rand()=387400812
;command = /home/grad00/soren885/capstone/ShapeletResearch/Execs/FastShapelet ./Shapelet_Datasets/UCR_CV_DATA/CinC_ECG_torso_TRAIN_CV2 4 21 820 1 2 10 euclidean 1 0 10 ./cv_output/CinC_ECG_torso_CV2/CinC_ECG_torso_CV2_euclidean_unnormed_CID_tree.txt ./cv_output/CinC_ECG_torso_CV2/CinC_ECG_torso_CV2_euclidean_unnormed_CID_time.txt 

;Local Class:   0  1  2  3 
;Real  Class:   1  2  3  4 

;Node ID class   obj  pos  len  dist_th 
TreeSize: 8 
NonL  1    --     10   75  707  44.4463 ==>   0   7   6   0  /   3   0   0   5 
NonL  2    --      0  511   21   0.1598 ==>   0   7   0   0  /   0   0   6   0 
NonL  3    --      1   26  631  26.0594 ==>   3   0   0   0  /   0   0   0   5 
Leaf  4     2    
Leaf  5     3    
Leaf  6     1    
Leaf  7     4    

;Shapelet id   <data>
Shapelet   1   0.497680  0.477080  0.490080  0.511800  0.539080  0.554200  0.532250  0.498960  0.486910  0.507460  0.546590  0.551010  0.523820  0.529620  0.559000  0.579900  0.608370  0.620320  0.595950  0.573340  0.547500  0.519730  0.544550  0.596750  0.618750  0.626310  0.615960  0.569560  0.519240  0.478320  0.452310  0.476560  0.531700  0.554770  0.548900  0.558540  0.582730  0.593270  0.583980  0.560650  0.542840  0.561830  0.587830  0.570890  0.553810  0.579010  0.608870  0.624260  0.624470  0.611960  0.629860  0.656140  0.633200  0.626690  0.678510  0.691340  0.638150  0.593610  0.569910  0.549470  0.550830  0.562720  0.545740  0.520460  0.545810  0.601590  0.598100  0.539450  0.522720  0.549720  0.566710  0.602540  0.650400  0.656380  0.657980  0.660160  0.613330  0.587720  0.617810  0.611610  0.580380  0.585400  0.591310  0.586770  0.588020  0.584540  0.591850  0.592000  0.548330  0.513720  0.519130  0.521500  0.521320  0.521820  0.511600  0.534840  0.584010  0.579680  0.542880  0.549990  0.580410  0.587470  0.587150  0.592240  0.580160  0.556100  0.551380  0.551800  0.524520  0.504610  0.539710  0.585300  0.590970  0.587880  0.588760  0.569030  0.545640  0.523390  0.492270  0.493130  0.519610  0.506000  0.480990  0.515480  0.575090  0.580670  0.525400  0.481140  0.503940  0.551740  0.576760  0.595410  0.589880  0.543180  0.509840  0.488750  0.455730  0.463840  0.487150  0.461840  0.463350  0.518600  0.533580  0.507570  0.487560  0.478910  0.501090  0.520890  0.482490  0.434180  0.419920  0.402060  0.371410  0.352640  0.348300  0.360840  0.385860  0.392780  0.378560  0.385980  0.414980  0.412080  0.386070  0.398580  0.440340  0.453290  0.431350  0.412610  0.420010  0.443720  0.458230  0.453160  0.449310  0.458450  0.452820  0.428230  0.412390  0.384570  0.333210  0.319160  0.354030  0.381180  0.388770  0.385510  0.363460  0.344680  0.353460  0.375950  0.398200  0.421110  0.444600  0.459640  0.452140  0.429080  0.408110  0.384090  0.358460  0.350220  0.352440  0.350350  0.362670  0.387390  0.372830  0.323410  0.321810  0.371570  0.391310  0.386530  0.409640  0.420250  0.381020  0.351200  0.360080  0.348700  0.300590  0.274590  0.287690  0.310730  0.327170  0.315610  0.288710  0.287750  0.282490  0.255020  0.260880  0.288050  0.306450  0.351280  0.387530  0.364350  0.342950  0.354440  0.355550  0.349050  0.353280  0.353690  0.351510  0.351830  0.331450  0.294980  0.286060  0.289530  0.273470  0.293250  0.346450  0.333930  0.276200  0.253400  0.247800  0.255210  0.281760  0.275460  0.247740  0.248510  0.253580  0.252600  0.275090  0.306290  0.320300  0.320880  0.307630  0.278280  0.253530  0.259950  0.293170  0.317840  0.308670  0.277980  0.254570  0.249470  0.252080  0.251850  0.251770  0.249980  0.227500  0.191890  0.187390  0.212810  0.222400  0.216820  0.217660  0.216550  0.220860  0.244580  0.271620  0.288410  0.288460  0.268600  0.245890  0.223570  0.204790  0.232060  0.304780  0.340580  0.303990  0.257630  0.235810  0.208820  0.185500  0.186730  0.180510  0.178870  0.222890  0.254270  0.225150  0.206570  0.221730  0.195230  0.144270  0.168140  0.241450  0.275410  0.292530  0.317450  0.305390  0.279690  0.284040  0.275960  0.238640  0.218370  0.219540  0.215880  0.216040  0.236140  0.256490  0.253340  0.245100  0.258980  0.282720  0.289670  0.281990  0.283260  0.303670  0.324450  0.321190  0.296560  0.284540  0.312800  0.362410  0.395510  0.416330  0.454740  0.506400  0.549670  0.592380  0.637520  0.655270  0.648880  0.667640  0.717570  0.750270  0.759460  0.786030  0.819100  0.819630  0.821160  0.862490  0.904680  0.923060  0.932580  0.904030  0.828360  0.798080  0.848880  0.860020  0.786530  0.752550  0.787590  0.798830  0.780330  0.757650  0.726180  0.733020  0.787130  0.820500  0.819690  0.791860  0.710100  0.615550  0.587610  0.597590  0.566000  0.521160  0.533680  0.565040  0.554690  0.557660  0.626370  0.688340  0.690970  0.694150  0.722210  0.729140  0.712580  0.688880  0.660810  0.659540  0.688900  0.698980  0.669260  0.621060  0.589670  0.591250  0.587580  0.561930  0.553350  0.554020  0.531640  0.515670  0.520760  0.520310  0.528340  0.555000  0.547680  0.475730  0.382520  0.313090  0.247190  0.145110  0.044352 -0.003835 -0.055480 -0.163530 -0.283740 -0.394120 -0.490680 -0.555660 -0.667610 -0.872110 -1.045000 -1.132800 -1.217600 -1.322900 -1.440000 -1.559500 -1.632000 -1.668800 -1.714600 -1.748800 -1.768400 -1.793500 -1.794500 -1.762800 -1.737600 -1.721700 -1.695800 -1.672800 -1.641400 -1.550900 -1.430700 -1.354400 -1.284700 -1.187800 -1.137400 -1.123500 -1.060600 -0.966040 -0.880180 -0.790100 -0.700640 -0.608340 -0.494520 -0.395520 -0.348670 -0.308560 -0.237460 -0.178580 -0.138490 -0.063590  0.030138  0.099174  0.145200  0.147710  0.118960  0.138350  0.191690  0.194110  0.169900  0.192270  0.241360  0.259210  0.250060  0.250260  0.247440  0.208170  0.159430  0.145450  0.151790  0.151570  0.150360  0.150600  0.150020  0.154260  0.146240  0.100400  0.052296  0.053441  0.058246  0.013830 -0.020697 -0.017348 -0.023438 -0.009406  0.041258  0.045992  0.008817  0.009327  0.036990  0.052014  0.052593  0.034803  0.012140  0.012941  0.023525  0.010499 -0.013898 -0.019620 -0.017152 -0.017862 -0.014877 -0.019650 -0.021026  0.002701  0.017264  0.014534  0.033029  0.052973  0.050578  0.051739  0.045308  0.019553  0.023842  0.059363  0.056943  0.020719  0.022410  0.048480  0.036374  0.011217  0.014379  0.018253  0.018002  0.043080  0.075105  0.084058  0.083157  0.085330  0.081628  0.081423  0.101400  0.121980  0.119570  0.099600  0.077261  0.079635  0.108830  0.113600  0.086946  0.077192  0.088767  0.112250  0.144550  0.145940  0.119700  0.113930  0.117340  0.116420  0.122850  0.107780  0.083820  0.100360  0.121790  0.117660  0.118480  0.111410  0.085859  0.077448  0.089488  0.113490  0.146000  0.141600  0.088762  0.065238  0.101110  0.118510  0.092184  0.085051  0.085235  0.055330  0.061470  0.113940  0.113400  0.062422  0.048580  0.073924  0.082539  0.052782  0.018420  0.024507  0.049114  0.037662  0.000119 -0.017323 -0.015855 -0.019633 -0.017945 -0.011093 -0.028403 -0.050675 -0.050636 -0.053980 -0.051837 -0.024624 -0.022261 -0.050404 -0.055060 -0.049822 -0.051293 -0.031501 -0.009427 -0.017086 -0.040131 -0.056727 -0.051326 -0.042522 -0.065476 -0.084766 -0.076399 -0.110440 -0.185620 -0.189720 -0.099912 -0.017253 -0.020477 -0.090674 -0.152520 -0.177450 -0.197020 -0.219660 -0.240010 -0.270510 -0.286370 -0.250110 -0.184050 -0.116130 -0.031502  0.073144  0.189050  0.337070  0.521900  0.695600  0.831970  0.968640  1.134900  1.301400  1.418400  1.463200  1.447800  1.403200  1.359100  1.318400  1.256300  1.150600  0.982580  0.766110  0.575540  0.424320  0.247010  0.070853 -0.059135 -0.218080 -0.442420 -0.686040 -0.943920 -1.221900 -1.527500 -1.867100 -2.161700 -2.379000 -2.632100 -2.942300 -3.197700 -3.386200 -3.569700 -3.748300 -3.917900 -4.112400 -4.353200 -4.619100 -4.897300 -5.241800 -5.671200 -6.088900 -6.463300 -6.874400 -7.305100 -7.671500 -7.960500 -8.138000 -8.150900 -8.030900 -7.813000 -7.502300 -7.147100 -6.784700 -6.387200 -5.925600 
Shapelet   2   0.286700  0.301890  0.310590  0.305550  0.300860  0.309340  0.310930  0.291340  0.281510  0.305700  0.335780  0.348150  0.365350  0.397440  0.420110  0.424980  0.424860  0.424120  0.423990  0.433300  0.450920 
Shapelet   3   0.367620  0.301550  0.235490  0.169420  0.169420  0.103350  0.070320  0.103350  0.070320 -0.028781 -0.193950 -0.160920 -0.193950 -0.226980 -0.326080 -0.392150 -0.491250 -0.557320 -0.755520  0.764020  0.797060  0.830090  0.896160  0.896160  0.962230  1.061300  1.028300  0.929190  0.830090  0.797060  0.797060  0.830090  0.896160  0.929190  0.929190  0.863130  0.797060  0.830090  0.863130  0.863130  0.830090  0.797060  0.797060  0.830090  0.896160  0.995260  0.995260  0.863130  0.797060  0.863130  0.896160  0.830090  0.764020  0.697960  0.631890  0.664920  0.697960  0.764020  0.730990  0.730990  0.797060  0.830090  0.863130  0.863130  0.896160  0.896160  0.896160  0.830090  0.764020  0.830090  0.830090  0.830090  0.929190  0.962230  0.863130  0.797060  0.764020  0.797060  0.830090  0.830090  0.797060  0.797060  0.863130  0.863130  0.764020  0.764020  0.764020  0.598860  0.598860  0.730990  0.863130  0.863130  0.797060  0.697960  0.664920  0.598860  0.631890  0.764020  0.797060  0.830090  0.863130  0.730990  0.598860  0.664920  0.730990  0.730990  0.598860  0.598860  0.664920  0.697960  0.697960  0.664920  0.730990  0.797060  0.730990  0.697960  0.664920  0.764020  0.863130  0.797060  0.631890  0.532790  0.532790  0.565820  0.730990  0.797060  0.830090  0.830090  0.730990  0.631890  0.598860  0.565820  0.499760  0.499760  0.565820  0.532790  0.565820  0.631890  0.598860  0.631890  0.697960  0.730990  0.697960  0.631890  0.598860  0.664920  0.664920  0.631890  0.598860  0.598860  0.631890  0.631890  0.565820  0.466720  0.466720  0.499760  0.565820  0.565820  0.466720  0.367620  0.433690  0.664920  0.764020  0.697960  0.697960  0.730990  0.664920  0.697960  0.697960  0.664920  0.631890  0.532790  0.499760  0.565820  0.598860  0.565820  0.532790  0.631890  0.598860  0.598860  0.598860  0.565820  0.664920  0.730990  0.730990  0.730990  0.764020  0.730990  0.565820  0.532790  0.532790  0.565820  0.532790  0.532790  0.532790  0.532790  0.565820  0.565820  0.532790  0.598860  0.664920  0.730990  0.730990  0.730990  0.730990  0.730990  0.664920  0.631890  0.598860  0.631890  0.664920  0.598860  0.532790  0.565820  0.532790  0.433690  0.433690  0.466720  0.565820  0.598860  0.598860  0.631890  0.631890  0.664920  0.631890  0.631890  0.664920  0.565820  0.499760  0.565820  0.664920  0.598860  0.499760  0.466720  0.466720  0.466720  0.466720  0.466720  0.532790  0.631890  0.664920  0.598860  0.565820  0.532790  0.565820  0.565820  0.598860  0.532790  0.499760  0.499760  0.598860  0.664920  0.664920  0.598860  0.565820  0.466720  0.499760  0.598860  0.664920  0.631890  0.532790  0.466720  0.433690  0.466720  0.565820  0.598860  0.565820  0.532790  0.499760  0.565820  0.565820  0.631890  0.664920  0.598860  0.499760  0.433690  0.400660  0.367620  0.400660  0.433690  0.433690  0.466720  0.499760  0.433690  0.433690  0.532790  0.598860  0.598860  0.631890  0.598860  0.631890  0.631890  0.598860  0.532790  0.433690  0.400660  0.400660  0.433690  0.466720  0.400660  0.400660  0.400660  0.367620  0.400660  0.499760  0.532790  0.499760  0.532790  0.565820  0.532790  0.532790  0.664920  0.697960  0.565820  0.433690  0.433690  0.565820  0.532790  0.499760  0.367620  0.367620  0.466720  0.532790  0.565820  0.697960  0.664920  0.499760  0.466720  0.400660  0.466720  0.466720  0.499760  0.499760  0.433690  0.400660  0.433690  0.466720  0.433690  0.433690  0.400660  0.433690  0.499760  0.499760  0.532790  0.466720  0.499760  0.532790  0.499760  0.499760  0.466720  0.499760  0.499760  0.433690  0.367620  0.367620  0.367620  0.367620  0.367620  0.367620  0.433690  0.400660  0.235490  0.169420  0.301550  0.433690  0.565820  0.532790  0.565820  0.565820  0.532790  0.532790  0.466720  0.433690  0.400660  0.400660  0.400660  0.466720  0.565820  0.631890  0.565820  0.532790  0.532790  0.499760  0.499760  0.499760  0.532790  0.433690  0.334590  0.334590  0.466720  0.466720  0.400660  0.400660  0.400660  0.400660  0.433690  0.466720  0.400660  0.400660  0.466720  0.466720  0.400660  0.400660  0.433690  0.466720  0.532790  0.565820  0.532790  0.532790  0.499760  0.499760  0.565820  0.532790  0.466720  0.400660  0.400660  0.433690  0.466720  0.400660  0.400660  0.400660  0.400660  0.367620  0.301550  0.301550  0.367620  0.334590  0.301550  0.268520  0.235490  0.169420  0.103350  0.004253 -0.061815 -0.127880 -0.193950 -0.160920 -0.260020 -0.392150 -0.491250 -0.425180 -0.392150 -0.425180 -0.458220 -0.425180 -0.458220 -0.557320 -0.590350 -0.623390 -0.557320 -0.590350 -0.656420 -0.590350 -0.557320 -0.623390 -0.722490 -0.689450 -0.623390 -0.590350 -0.656420 -0.722490 -0.656420 -0.491250 -0.425180 -0.293050 -0.293050 -0.359120 -0.392150 -0.392150 -0.392150 -0.392150 -0.392150 -0.359120 -0.425180 -0.623390 -0.755520 -0.821590 -0.755520 -0.821590 -0.920690 -0.953720 -1.052800 -1.118900 -1.019800 -0.887650 -0.788550 -0.788550 -0.722490 -0.656420 -0.557320 -0.392150 -0.293050 -0.193950 -0.094848 -0.094848 -0.160920 -0.226980 -0.293050 -0.226980 -0.127880 -0.127880 -0.293050 -0.425180 -0.458220 -0.491250 -0.491250 -0.458220 -0.293050 -0.193950 -0.160920 -0.226980 -0.160920 -0.094848 -0.061815 -0.127880 -0.160920 -0.094848 -0.193950 -0.226980 -0.226980 -0.226980 -0.326080 -0.260020 -0.160920 -0.061815  0.037286  0.103350  0.103350  0.070320  0.070320  0.169420  0.235490  0.334590  0.334590  0.301550  0.400660  0.499760  0.565820  0.532790  0.532790  0.532790  0.499760  0.532790  0.565820  0.764020  0.929190  0.863130  0.664920  0.532790  0.565820  0.697960  0.664920  0.532790  0.499760  0.532790  0.565820  0.565820  0.532790  0.598860  0.631890  0.664920  0.631890  0.631890  0.664920  0.697960  0.730990  0.730990  0.797060  0.730990  0.598860  0.598860  0.598860  0.565820  0.466720  0.433690  0.400660  0.466720  0.631890  0.764020  0.730990  0.664920  0.532790  0.499760  0.598860  0.565820  0.565820  0.631890  0.664920  0.598860  0.631890  0.631890  0.631890  0.631890  0.664920  0.565820  0.499760  0.433690  0.400660  0.301550  0.202450  0.235490  0.202450  0.037286 -0.061815 -0.061815 -0.160920 -0.326080 -0.590350 -0.854620 -1.085900 -1.284100 -1.449200 -1.614400 -1.977800 -2.407200 -2.902700 -3.266100 -3.497300 -3.662500 -3.728500 -3.662500 -3.728500 -3.860700 -3.893700 -3.827600 -3.827600 -4.091900 -4.455300 -4.785600 -5.116000 -5.347200 


; cmd = /home/grad00/soren885/capstone/ShapeletResearch/Execs/FastShapelet ./Shapelet_Datasets/UCR_CV_DATA/CinC_ECG_torso_TRAIN_CV2 4 21 820 1 2 10 euclidean 1 0 10 ./cv_output/CinC_ECG_torso_CV2/CinC_ECG_torso_CV2_euclidean_unnormed_CID_tree.txt ./cv_output/CinC_ECG_torso_CV2/CinC_ECG_torso_CV2_euclidean_unnormed_CID_time.txt
; time =>  291.174   4.848  18.802   1.571 264.194 
; command = /home/grad00/soren885/capstone/ShapeletResearch/Execs/Classify ./Shapelet_Datasets/UCR_CV_DATA/CinC_ECG_torso_TRAIN_CV1 4 19 euclidean 1 0 ./cv_output/CinC_ECG_torso_CV2/CinC_ECG_torso_CV2_euclidean_unnormed_CID_tree.txt ./cv_output/CinC_ECG_torso_CV2/CinC_ECG_torso_CV2_euclidean_unnormed_CID_acc.txt
; accuracy= 52.632   Correct:10 , Wrong: 9


;   == Confusion Matrix ==
;   real |   1    2    3    4 
;   -----+------------------------
;   p  1 |   0    0    0    0 
;   p  2 |   0    1    2    0 
;   p  3 |   2    5    4    0 
;   p  4 |   0    0    0    5 

